Date,Time,ecg1,ecg2,ecg3,ecg4,ecg5
2021-04-07,16:25:05.948000,0.00052519,0.00031583,0.0011732000000000001,-0.00015566,6.9662e-05
2021-04-07,16:25:05.950000,0.0017643000000000001,0.00053822,0.0029021999999999997,-0.00065789,-0.00029286
2021-04-07,16:25:05.952000,0.0011259,0.00034942,0.0016184,-0.00034077,-0.00013131
2021-04-07,16:25:05.954000,0.0015265,0.00044809,0.0025242,-0.00053345,-0.00023993
2021-04-07,16:25:05.956000,0.0011819,0.00039468,0.0022505,-0.00038134,-0.00011433
2021-04-07,16:25:05.958000,0.00092182,0.0003838,0.0023291,-0.00028765,-4.0978999999999995e-05
2021-04-07,16:25:05.960000,0.00086736,0.00041893,0.0026484,-0.00028373,-1.5917e-05
2021-04-07,16:25:05.962000,0.00069759,0.00039353,0.0024806,-0.00019296,5.6463000000000005e-05
2021-04-07,16:25:05.964000,0.00089939,0.00042316,0.0027814,-0.00027679,-1.2049000000000001e-05
2021-04-07,16:25:05.966000,0.0010609999999999999,0.00042241,0.0027625999999999996,-0.00033734,-9.730200000000001e-05
2021-04-07,16:25:05.968000,0.0013486,0.00041265,0.0028462,-0.00041101,-0.00020477
2021-04-07,16:25:05.970000,0.0015952,0.00039882,0.003029,-0.00047697,-0.00029082
2021-04-07,16:25:05.972000,0.0016432999999999999,0.00040323,0.0031217,-0.00049649,-0.0003273
2021-04-07,16:25:05.974000,0.0016254000000000002,0.00043441,0.0033707999999999998,-0.00049658,-0.00032882
2021-04-07,16:25:05.976000,0.0014189,0.00044646,0.0035457,-0.00041961,-0.00026526
2021-04-07,16:25:05.978000,0.0012061,0.00046247,0.0037957999999999998,-0.00035072,-0.00020916
2021-04-07,16:25:05.980000,0.0010382,0.0004752,0.0040378,-0.00030176,-0.00016452
2021-04-07,16:25:05.982000,0.00094765,0.00048728,0.0041823,-0.00027538,-0.00014967
2021-04-07,16:25:05.984000,0.001041,0.00050739,0.0043306,-0.00031381,-0.00019969999999999998
2021-04-07,16:25:05.986000,0.0012524,0.00053197,0.0044452,-0.0003898,-0.00026715
2021-04-07,16:25:05.988000,0.0015106,0.00054634,0.0045498000000000005,-0.00047556,-0.00035625
2021-04-07,16:25:05.990000,0.0017070999999999998,0.00053823,0.004626,-0.00054426,-0.00045444
2021-04-07,16:25:05.992000,0.0017675999999999998,0.00054098,0.0047379,-0.00056307,-0.00048987
2021-04-07,16:25:05.994000,0.0016614000000000002,0.00055389,0.0049247,-0.00052095,-0.00046887
2021-04-07,16:25:05.996000,0.0014324000000000001,0.00055609,0.0051033,-0.00045663,-0.00041332
2021-04-07,16:25:05.998000,0.0011603,0.0005586,0.005291,-0.00037781,-0.0003165
2021-04-07,16:25:06,0.00089314,0.00056981,0.0055003,-0.00028973,-0.00024037
2021-04-07,16:25:06.002000,0.00080889,0.00057895,0.0056806999999999995,-0.0002614,-0.00022995
2021-04-07,16:25:06.004000,0.00092202,0.00057819,0.0058169,-0.00028867,-0.00026284
2021-04-07,16:25:06.006000,0.0010642000000000002,0.00058387,0.0059648,-0.00033578,-0.00033271
2021-04-07,16:25:06.008000,0.0012748,0.00059688,0.006139100000000001,-0.00041207,-0.00042984
2021-04-07,16:25:06.010000,0.001493,0.00060356,0.006280399999999999,-0.00047279,-0.00051389
2021-04-07,16:25:06.012000,0.0015288,0.00060637,0.0064359,-0.00047776,-0.00054205
2021-04-07,16:25:06.014000,0.0014142000000000002,0.00060099,0.006609,-0.00044222,-0.00050929
2021-04-07,16:25:06.016000,0.0012004000000000001,0.00059008,0.0067581,-0.00035926,-0.00043722
2021-04-07,16:25:06.018000,0.00090963,0.00058809,0.006940600000000001,-0.00025319,-0.00034177
2021-04-07,16:25:06.020000,0.00069184,0.00058373,0.0071209,-0.00017707,-0.00025941
2021-04-07,16:25:06.022000,0.00062734,0.00056398,0.0072591999999999995,-0.00013833,-0.00022976
2021-04-07,16:25:06.024000,0.00066841,0.00054078,0.0073781,-0.00015524,-0.00026176
2021-04-07,16:25:06.026000,0.00083418,0.00051796,0.0074643,-0.0002218,-0.00033145
2021-04-07,16:25:06.028000,0.0010989,0.00049229,0.0075331,-0.00028927,-0.00040814
2021-04-07,16:25:06.030000,0.0013054,0.00046879,0.0076045,-0.00034252,-0.0004772
2021-04-07,16:25:06.032000,0.0013765000000000001,0.00044336,0.0076837,-0.00035807,-0.00050339
2021-04-07,16:25:06.034000,0.001279,0.00041799,0.0077802999999999995,-0.00031334,-0.00047399
2021-04-07,16:25:06.036000,0.0010437,0.00040497,0.0078886,-0.00023862,-0.00040779
2021-04-07,16:25:06.038000,0.00081495,0.00039435,0.0079832,-0.00016492,-0.00031656
2021-04-07,16:25:06.040000,0.00062143,0.00037522,0.0080518,-9.789799999999999e-05,-0.00024665
2021-04-07,16:25:06.042000,0.00052041,0.00036015,0.008095100000000001,-6.7851e-05,-0.00022727
2021-04-07,16:25:06.044000,0.0006242000000000001,0.00035018,0.0081029,-0.00010191,-0.00025793
2021-04-07,16:25:06.046000,0.00084997,0.00033553,0.0080947,-0.00016916,-0.0003299
2021-04-07,16:25:06.048000,0.0011118,0.00031749,0.008091500000000001,-0.00025142,-0.00041979
2021-04-07,16:25:06.050000,0.0013538,0.00029059,0.008086399999999999,-0.00033169,-0.00051122
2021-04-07,16:25:06.052000,0.001456,0.00025752,0.0080966,-0.00035517,-0.00054313
2021-04-07,16:25:06.054000,0.0013817,0.00024098,0.0081327,-0.00032567,-0.00050437
2021-04-07,16:25:06.056000,0.0011968,0.00023916,0.0081753,-0.00027559,-0.00045079
2021-04-07,16:25:06.058000,0.00097776,0.00023235,0.0082233,-0.00019885,-0.00038333
2021-04-07,16:25:06.060000,0.00077302,0.00022337,0.008267100000000001,-0.00012499,-0.00033085
2021-04-07,16:25:06.062000,0.00072482,0.00021342,0.0082734,-0.00010522,-0.00032008
2021-04-07,16:25:06.064000,0.00087859,0.00018408,0.008250200000000001,-0.00013712,-0.00034595
2021-04-07,16:25:06.066000,0.0010759,0.00014972,0.0082231,-0.00020224,-0.00042295
2021-04-07,16:25:06.068000,0.0013595999999999999,0.00014559,0.0081908,-0.00029436,-0.00051879
2021-04-07,16:25:06.070000,0.0016879000000000002,0.00013224,0.0081654,-0.00037430000000000005,-0.00059547
2021-04-07,16:25:06.072000,0.0018041,9.7621e-05,0.008165500000000001,-0.00040347,-0.00061899
2021-04-07,16:25:06.074000,0.0017538,9.177399999999999e-05,0.008178399999999999,-0.00039631,-0.00058982
2021-04-07,16:25:06.076000,0.0016261,6.3644e-05,0.008201100000000001,-0.00034843,-0.00055437
2021-04-07,16:25:06.078000,0.0013995999999999998,1.5066e-05,0.0082486,-0.00026071,-0.00048947
2021-04-07,16:25:06.080000,0.0012218,7.9413e-06,0.0082925,-0.00020101,-0.00042354
2021-04-07,16:25:06.082000,0.0012090999999999998,-3.1508999999999998e-06,0.0082989,-0.00019748,-0.00042792
2021-04-07,16:25:06.084000,0.0013345999999999998,-1.1937000000000001e-05,0.0082804,-0.00024715,-0.00048278
2021-04-07,16:25:06.086000,0.0015771,-1.0075e-05,0.008246700000000001,-0.00034284,-0.00057688
2021-04-07,16:25:06.088000,0.0018916,-3.3267e-05,0.0082015,-0.00043421,-0.0006865
2021-04-07,16:25:06.090000,0.0021671999999999998,-5.2243999999999996e-05,0.0081604,-0.00051537,-0.00077337
2021-04-07,16:25:06.092000,0.0023041999999999997,-6.356600000000001e-05,0.0081341,-0.00057347,-0.0008330999999999999
2021-04-07,16:25:06.094000,0.0022489999999999997,-7.3905e-05,0.0081301,-0.00055945,-0.00083365
2021-04-07,16:25:06.096000,0.0020599,-7.4693e-05,0.0081441,-0.00050253,-0.00077892
2021-04-07,16:25:06.098000,0.0018613,-8.267200000000001e-05,0.008161700000000001,-0.00043988,-0.00071136
2021-04-07,16:25:06.100000,0.0016890999999999998,-0.00010119,0.008170199999999999,-0.00038045,-0.00064647
2021-04-07,16:25:06.102000,0.0016214000000000003,-0.00011237,0.0081664,-0.00036416,-0.00063558
2021-04-07,16:25:06.104000,0.0017611,-0.00010766,0.0081438,-0.00041485,-0.00069484
2021-04-07,16:25:06.106000,0.0020239,-0.00010868,0.0080961,-0.00050103,-0.00076646
2021-04-07,16:25:06.108000,0.0023057,-0.00012214,0.0080406,-0.00059564,-0.00086178
2021-04-07,16:25:06.110000,0.0025704,-0.00012858,0.007991700000000001,-0.00068951,-0.00096933
2021-04-07,16:25:06.112000,0.0026995,-0.00012894,0.0079698,-0.00072959,-0.0010087
2021-04-07,16:25:06.114000,0.0026233,-0.00012744,0.0079925,-0.00070164,-0.00098457
2021-04-07,16:25:06.116000,0.0024404,-0.00012207,0.008032899999999999,-0.00064711,-0.00092719
2021-04-07,16:25:06.118000,0.0022121,-0.00012037,0.0080753,-0.00056826,-0.00084341
2021-04-07,16:25:06.120000,0.001973,-0.00011808,0.0081198,-0.00050138,-0.000768
2021-04-07,16:25:06.122000,0.0018987000000000001,-0.00011287,0.008143000000000001,-0.00049502,-0.00075092
2021-04-07,16:25:06.124000,0.0020218,-0.00011279,0.0081458,-0.00052804,-0.00079291
2021-04-07,16:25:06.126000,0.0021884,-0.00010828,0.0081443,-0.00058833,-0.00085111
2021-04-07,16:25:06.128000,0.0024113000000000003,-0.00010233,0.008126699999999999,-0.00067646,-0.00094407
2021-04-07,16:25:06.130000,0.0026486,-9.311399999999999e-05,0.0081164,-0.00074857,-0.0010395
2021-04-07,16:25:06.132000,0.0027014,-7.3638e-05,0.0081429,-0.00076316,-0.0010501
2021-04-07,16:25:06.134000,0.00257,-7.148899999999999e-05,0.0081855,-0.00072601,-0.0010035
2021-04-07,16:25:06.136000,0.0023448,-7.5248e-05,0.0082534,-0.00065138,-0.00092247
2021-04-07,16:25:06.138000,0.0020405,-6.803e-05,0.0083456,-0.00055163,-0.00081291
2021-04-07,16:25:06.140000,0.0017554000000000003,-6.9254e-05,0.008421,-0.00046718,-0.00072774
2021-04-07,16:25:06.142000,0.0016309999999999999,-6.325100000000001e-05,0.0084705,-0.00043294,-0.0006857
2021-04-07,16:25:06.144000,0.0016633,-4.8209e-05,0.008502299999999999,-0.00044999,-0.00069825
2021-04-07,16:25:06.146000,0.0017930999999999997,-3.7797e-05,0.0085224,-0.00050086,-0.00075465
2021-04-07,16:25:06.148000,0.0019874000000000003,-2.3440999999999998e-05,0.0085314,-0.00055683,-0.00081195
2021-04-07,16:25:06.150000,0.0021334,-1.2495999999999999e-05,0.008543799999999999,-0.00060014,-0.00085517
2021-04-07,16:25:06.152000,0.0021325,-1.0545e-05,0.008581100000000001,-0.00060496,-0.00085715
2021-04-07,16:25:06.154000,0.0019363,-1.5189000000000001e-05,0.0086459,-0.00054337,-0.00078657
2021-04-07,16:25:06.156000,0.0016015,-2.217e-05,0.0087315,-0.00044474,-0.00067873
2021-04-07,16:25:06.158000,0.0012724,-2.3731e-05,0.008818600000000001,-0.00033357,-0.00056446
2021-04-07,16:25:06.160000,0.00095369,-1.7392e-05,0.0088882,-0.00022148,-0.00044713
2021-04-07,16:25:06.162000,0.00072548,8.4851e-07,0.0089245,-0.00016432,-0.00038298
2021-04-07,16:25:06.164000,0.00069903,2.0555e-05,0.008939299999999999,-0.00017167,-0.00038338
2021-04-07,16:25:06.166000,0.00077468,3.0526e-05,0.0089435,-0.00019795,-0.00039775
2021-04-07,16:25:06.168000,0.00087778,3.8517e-05,0.0089209,-0.00023452,-0.00043339999999999996
2021-04-07,16:25:06.170000,0.0009571,4.7313e-05,0.0088998,-0.00026791,-0.00046951
2021-04-07,16:25:06.172000,0.0009112,5.4871000000000004e-05,0.0089009,-0.00024409999999999997,-0.00043966
2021-04-07,16:25:06.174000,0.00067643,6.3218e-05,0.008909299999999998,-0.00015971,-0.0003551
2021-04-07,16:25:06.176000,0.00030968,7.094600000000001e-05,0.00892,-4.5854e-05,-0.00023676
2021-04-07,16:25:06.178000,-8.056300000000001e-05,8.0431e-05,0.008923700000000001,9.0395e-05,-8.5541e-05
2021-04-07,16:25:06.180000,-0.0004636,9.8049e-05,0.0089142,0.00020422,3.5576e-05
2021-04-07,16:25:06.182000,-0.00069536,0.00011825,0.0088722,0.00025843,9.591299999999999e-05
2021-04-07,16:25:06.184000,-0.0007095,0.00013672,0.008792200000000002,0.00027482,0.00012825
2021-04-07,16:25:06.186000,-0.00068374,0.00014796,0.0086926,0.00026469,0.00012728
2021-04-07,16:25:06.188000,-0.00061803,0.00015261,0.0085814,0.00022862,9.3295e-05
2021-04-07,16:25:06.190000,-0.0005292000000000001,0.00017107,0.008471799999999998,0.0002082,7.6305e-05
2021-04-07,16:25:06.192000,-0.00062373,0.00019056,0.0083859,0.00024881,0.00011109
2021-04-07,16:25:06.194000,-0.00089143,0.00020435,0.008338,0.00033338,0.00020066
2021-04-07,16:25:06.196000,-0.0012489,0.00022769,0.0083137,0.00044802,0.00033192
2021-04-07,16:25:06.198000,-0.0016765,0.00024603,0.0082882,0.00059099,0.00047699
2021-04-07,16:25:06.200000,-0.0020618000000000004,0.00026916,0.008250200000000001,0.00071519,0.00061191
2021-04-07,16:25:06.202000,-0.0023043000000000004,0.00028339999999999995,0.0081984,0.00079042,0.00069983
2021-04-07,16:25:06.204000,-0.0023948,0.00028088,0.008117000000000001,0.00081598,0.00071877
2021-04-07,16:25:06.206000,-0.0023802,0.0003094,0.0080081,0.0008093,0.00071232
2021-04-07,16:25:06.208000,-0.0023183,0.00033089999999999997,0.0079189,0.00080579,0.00072131
2021-04-07,16:25:06.210000,-0.002299,0.00034054,0.007838600000000001,0.0008093999999999999,0.00074233
2021-04-07,16:25:06.212000,-0.0024066,0.00038958,0.007761100000000001,0.00083892,0.00079096
2021-04-07,16:25:06.214000,-0.0026963,0.00042599,0.0077231999999999995,0.00093575,0.00090164
2021-04-07,16:25:06.216000,-0.0031111999999999997,0.00043595,0.0076979,0.0010639000000000002,0.0010494999999999999
2021-04-07,16:25:06.218000,-0.003482,0.00045154,0.0076625,0.0011848,0.0011967
2021-04-07,16:25:06.220000,-0.0038266,0.00046607,0.007615600000000001,0.0013055999999999999,0.0013342
2021-04-07,16:25:06.222000,-0.0041052,0.00047981,0.0075521,0.0013714,0.0014265
2021-04-07,16:25:06.224000,-0.004162399999999999,0.00049423,0.0074562,0.0013616,0.0014629
2021-04-07,16:25:06.226000,-0.0041016,0.00051592,0.007322100000000001,0.0013407,0.0014677
2021-04-07,16:25:06.228000,-0.004026699999999999,0.00053406,0.0071973,0.0013089,0.0014421
2021-04-07,16:25:06.230000,-0.0039536,0.00054198,0.007084699999999999,0.0012669,0.0014142000000000002
2021-04-07,16:25:06.232000,-0.003986099999999999,0.00055136,0.0069943,0.0012775,0.0014444
2021-04-07,16:25:06.234000,-0.0041938999999999995,0.00055683,0.0069665000000000005,0.0013414000000000002,0.0015253
2021-04-07,16:25:06.236000,-0.0044959,0.00056434,0.006952600000000001,0.0014261,0.0016227999999999998
2021-04-07,16:25:06.238000,-0.0048103,0.00057079,0.006939399999999999,0.0015203,0.0017469
2021-04-07,16:25:06.240000,-0.005107199999999999,0.00056215,0.006934899999999999,0.0015856,0.0018447
2021-04-07,16:25:06.242000,-0.0052402,0.00054531,0.0068823999999999995,0.0016045999999999999,0.0018652999999999999
2021-04-07,16:25:06.244000,-0.0051814999999999995,0.00053146,0.006800700000000001,0.0015860999999999998,0.001848
2021-04-07,16:25:06.246000,-0.005038399999999999,0.00051907,0.006713899999999999,0.001527,0.0018018
2021-04-07,16:25:06.248000,-0.0048347,0.00050389,0.00662,0.0014463,0.001726
2021-04-07,16:25:06.250000,-0.0046624,0.00050117,0.0065474999999999995,0.0013788000000000001,0.0016611
2021-04-07,16:25:06.252000,-0.0046259,0.00050693,0.0064637,0.0013594000000000002,0.0016382000000000002
2021-04-07,16:25:06.254000,-0.004717600000000001,0.00050344,0.0063933,0.0013870999999999998,0.001666
2021-04-07,16:25:06.256000,-0.004879100000000001,0.00049672,0.006382100000000001,0.0014384,0.0017317999999999997
2021-04-07,16:25:06.258000,-0.005067800000000001,0.00048645,0.0063662,0.0014965999999999998,0.0017933
2021-04-07,16:25:06.260000,-0.005188600000000001,0.00046939,0.0063413,0.0015234000000000003,0.0018135000000000002
2021-04-07,16:25:06.262000,-0.005133100000000001,0.00044880000000000007,0.006310100000000001,0.0015027999999999999,0.0017825
2021-04-07,16:25:06.264000,-0.0049485,0.00043237,0.0062331,0.0014237,0.0016875999999999998
2021-04-07,16:25:06.266000,-0.0046381999999999994,0.0004258,0.0061607,0.0012967,0.0015592
2021-04-07,16:25:06.268000,-0.0042007,0.00042229,0.0061222,0.0011762,0.0014204
2021-04-07,16:25:06.270000,-0.0038027,0.00041013,0.0060758,0.0010527999999999998,0.0012699000000000002
2021-04-07,16:25:06.272000,-0.0035967,0.00039011,0.0060472,0.00096204,0.0011895999999999999
2021-04-07,16:25:06.274000,-0.0036597,0.00038669,0.006085800000000001,0.00098316,0.0012229
2021-04-07,16:25:06.276000,-0.0038775,0.0003924,0.006154,0.0010505999999999998,0.0012870999999999998
2021-04-07,16:25:06.278000,-0.0040536999999999995,0.00039667,0.0062091,0.0011025,0.0013262
2021-04-07,16:25:06.280000,-0.004171800000000001,0.00041255,0.006252199999999999,0.0011477,0.0013706
2021-04-07,16:25:06.282000,-0.0041655,0.00040814,0.0062644,0.0011264,0.0013652999999999998
2021-04-07,16:25:06.284000,-0.0039384,0.00039276,0.006237899999999999,0.0010295999999999999,0.0012587
2021-04-07,16:25:06.286000,-0.0036048,0.00040360000000000005,0.0061951,0.00093226,0.0011603
2021-04-07,16:25:06.288000,-0.0032443000000000003,0.00040813,0.00614,0.00082022,0.0010595999999999997
2021-04-07,16:25:06.290000,-0.0028748000000000003,0.00039593,0.0060758,0.00069403,0.00090753
2021-04-07,16:25:06.292000,-0.002651,0.00038758,0.0060342,0.00062911,0.00080572
2021-04-07,16:25:06.294000,-0.0026097,0.00038349,0.006011,0.00061633,0.00077636
2021-04-07,16:25:06.296000,-0.0026128,0.00037580000000000003,0.0059643,0.00061811,0.00077236
2021-04-07,16:25:06.298000,-0.0026421999999999995,0.00036711,0.0059146,0.00063435,0.00078019
2021-04-07,16:25:06.300000,-0.0026736999999999998,0.00037082,0.0058714,0.00063977,0.00078982
2021-04-07,16:25:06.302000,-0.0025675999999999997,0.00037354,0.005797399999999999,0.0006027999999999999,0.00075474
2021-04-07,16:25:06.304000,-0.0023334,0.00036241,0.005682899999999999,0.00052585,0.00066247
2021-04-07,16:25:06.306000,-0.0020472999999999997,0.00034718,0.005520199999999999,0.00042856,0.00057344
2021-04-07,16:25:06.308000,-0.0017244,0.00034022,0.005339899999999999,0.00031817,0.00048313
2021-04-07,16:25:06.310000,-0.0014695,0.00033847,0.0051476000000000004,0.00022418,0.00039698
2021-04-07,16:25:06.312000,-0.0013690999999999998,0.00031817,0.0049397,0.00018931,0.00036492
2021-04-07,16:25:06.314000,-0.0013755,0.00029293,0.0047535,0.00019690000000000002,0.00037386
2021-04-07,16:25:06.316000,-0.0014241,0.00027909,0.0045544,0.00021408,0.00038978
2021-04-07,16:25:06.318000,-0.0015057,0.00025227,0.0043296,0.00023248,0.00036929
2021-04-07,16:25:06.320000,-0.0014933,0.00023140000000000001,0.0040714,0.00022103,0.0003173
2021-04-07,16:25:06.322000,-0.0012732999999999998,0.0002331,0.0037635,0.00015085,0.00026077
2021-04-07,16:25:06.324000,-0.00097269,0.00021709,0.0034132,2.5366e-05,0.00014661
2021-04-07,16:25:06.326000,-0.00058433,0.00019768,0.0030243,-0.00013115,-6.922899999999999e-06
2021-04-07,16:25:06.328000,-0.00011976,0.00018619,0.0026631,-0.00026899,-0.00015944
2021-04-07,16:25:06.330000,0.00023016,0.00014468,0.0023175,-0.00035589,-0.00033325
2021-04-07,16:25:06.332000,0.00044889,0.00010729999999999999,0.0019693,-0.00038819999999999995,-0.00043573
2021-04-07,16:25:06.334000,0.00050599,6.2543e-05,0.0016462,-0.00036499,-0.00045666
2021-04-07,16:25:06.336000,0.00041146,-8.0418e-06,0.0013244,-0.00030754,-0.00048757
2021-04-07,16:25:06.338000,0.00029273,-2.8504e-05,0.00097104,-0.00024087,-0.00047897
2021-04-07,16:25:06.340000,0.00015111,-5.324e-05,0.0005438,-0.00016308,-0.00044519
2021-04-07,16:25:06.342000,4.2635e-05,-9.059700000000001e-05,0.0001702,-9.030899999999999e-05,-0.00044138
2021-04-07,16:25:06.344000,0.00010236,-3.4386e-05,-7.0507e-05,-7.0206e-05,-0.00045587
2021-04-07,16:25:06.346000,0.00025108,6.0491999999999996e-05,-0.00040810000000000005,-8.634200000000001e-05,-0.00049906
2021-04-07,16:25:06.348000,0.00032777,0.00014573,-0.0008744,-9.1562e-05,-0.00052219
2021-04-07,16:25:06.350000,0.00035410000000000004,0.00023196,-0.0013378,-9.3096e-05,-0.00045619
2021-04-07,16:25:06.352000,0.00021426,0.0003392,-0.0019689,-5.4582e-05,-0.00026916
2021-04-07,16:25:06.354000,-0.00018658,0.00049558,-0.0026861,4.8972e-05,-2.0974e-05
2021-04-07,16:25:06.356000,-0.00058458,0.00065235,-0.0032939999999999996,0.00014634,0.00022705
2021-04-07,16:25:06.358000,-0.00093836,0.00081041,-0.0039391,0.00018865,0.00049633
2021-04-07,16:25:06.360000,-0.0012777,0.00097608,-0.0044283000000000005,0.00013135,0.00071269
2021-04-07,16:25:06.362000,-0.001399,0.001164,-0.0047938,-4.1413999999999993e-05,0.00088507
2021-04-07,16:25:06.364000,-0.0013402999999999998,0.0013525,-0.0052587,-0.00026944,0.001048
2021-04-07,16:25:06.366000,-0.0011893,0.0014037000000000001,-0.005538899999999999,-0.00054497,0.0010825
2021-04-07,16:25:06.368000,-0.00095946,0.0014156,-0.005731,-0.00082105,0.0010414
2021-04-07,16:25:06.370000,-0.00082901,0.0014436,-0.0058798999999999995,-0.00097996,0.0010197000000000001
2021-04-07,16:25:06.372000,-0.00089843,0.0012875,-0.0059418,-0.0010331,0.00099236
2021-04-07,16:25:06.374000,-0.0011331,0.0010358,-0.006252199999999999,-0.0010548,0.0009972000000000002
2021-04-07,16:25:06.376000,-0.0014834000000000002,0.0008148,-0.0065643,-0.0010425,0.0010324000000000002
2021-04-07,16:25:06.378000,-0.0018541,0.0005249,-0.0068262,-0.00094877,0.0010394
2021-04-07,16:25:06.380000,-0.0022201,0.00018555,-0.007298000000000001,-0.000808,0.0010308
2021-04-07,16:25:06.382000,-0.002574,-0.00013982,-0.007662100000000001,-0.00069947,0.0010277
2021-04-07,16:25:06.384000,-0.0028108,-0.00038422,-0.0081422,-0.00060462,0.00098638
2021-04-07,16:25:06.386000,-0.0028798,-0.00047095,-0.0088251,-0.00053289,0.00088853
2021-04-07,16:25:06.388000,-0.002863,-0.0005103,-0.0089326,-0.00048779,0.00078847
2021-04-07,16:25:06.390000,-0.0028910999999999997,-0.00057662,-0.0086663,-0.00040398,0.00074207
2021-04-07,16:25:06.392000,-0.0030074999999999998,-0.00058113,-0.0086017,-0.00028902,0.00076997
2021-04-07,16:25:06.394000,-0.0032479999999999996,-0.00055077,-0.008464600000000001,-0.00012276,0.00084587
2021-04-07,16:25:06.396000,-0.0036015,-0.00055615,-0.0082484,8.4591e-05,0.00093007
2021-04-07,16:25:06.398000,-0.0038939,-0.0005796,-0.0081529,0.00024982,0.0010042
2021-04-07,16:25:06.400000,-0.004108,-0.0006014,-0.0080726,0.00037966,0.0010744
2021-04-07,16:25:06.402000,-0.0042312,-0.00059179,-0.0080328,0.00046294,0.0011309
2021-04-07,16:25:06.404000,-0.0041295,-0.00056869,-0.0080403,0.00048864,0.0011214999999999999
2021-04-07,16:25:06.406000,-0.0039211,-0.00056776,-0.0080721,0.00049496,0.0010630999999999998
2021-04-07,16:25:06.408000,-0.0037531999999999995,-0.00056738,-0.0081572,0.00048106,0.0010152999999999998
2021-04-07,16:25:06.410000,-0.0036533,-0.00057879,-0.008283200000000001,0.00047767,0.00098047
2021-04-07,16:25:06.412000,-0.0036967,-0.00060197,-0.0085309,0.00051244,0.00098319
2021-04-07,16:25:06.414000,-0.0038935000000000003,-0.00060732,-0.008707799999999998,0.00057714,0.0010452999999999999
2021-04-07,16:25:06.416000,-0.004118899999999999,-0.0006232999999999999,-0.0087694,0.00066523,0.0011207
2021-04-07,16:25:06.418000,-0.0042271,-0.00064985,-0.0090202,0.00071993,0.0011704
2021-04-07,16:25:06.420000,-0.0041826,-0.00064394,-0.009240700000000001,0.0006997999999999999,0.0011662
2021-04-07,16:25:06.422000,-0.0040449,-0.00064107,-0.009423,0.00065138,0.0011132
2021-04-07,16:25:06.424000,-0.0038821999999999997,-0.00067196,-0.0097632,0.00061729,0.0010673
2021-04-07,16:25:06.426000,-0.0036615000000000003,-0.00068014,-0.0099355,0.00055437,0.00099949
2021-04-07,16:25:06.428000,-0.0033928000000000005,-0.00065556,-0.010012,0.00046181,0.00089477
2021-04-07,16:25:06.430000,-0.0032476,-0.00064821,-0.010218999999999999,0.00042999,0.00084785
2021-04-07,16:25:06.432000,-0.003249,-0.00065048,-0.010424,0.00044909,0.00086376
2021-04-07,16:25:06.434000,-0.0033195,-0.00062778,-0.010631,0.00047948,0.00090672
2021-04-07,16:25:06.436000,-0.0034703000000000004,-0.00060091,-0.010860999999999999,0.00054124,0.0009757999999999999
2021-04-07,16:25:06.438000,-0.0036469000000000002,-0.00058857,-0.011062,0.0005835,0.001021
2021-04-07,16:25:06.440000,-0.0036821999999999996,-0.000562,-0.011191,0.00057948,0.0010276
2021-04-07,16:25:06.442000,-0.0035294000000000002,-0.00051984,-0.011281999999999999,0.00055039,0.00099879
2021-04-07,16:25:06.444000,-0.0033088,-0.0004745,-0.01145,0.00046815,0.00091754
2021-04-07,16:25:06.446000,-0.0030123000000000003,-0.00043454,-0.011645,0.00035682,0.00081672
2021-04-07,16:25:06.448000,-0.0026803,-0.00042044,-0.0118,0.00026680000000000003,0.00073309
2021-04-07,16:25:06.450000,-0.0024828000000000003,-0.00039985,-0.012006000000000001,0.00020136,0.00067879
2021-04-07,16:25:06.452000,-0.0024298,-0.00036477,-0.012203,0.00018505,0.00067008
2021-04-07,16:25:06.454000,-0.0025423000000000004,-0.00034802,-0.012355,0.00023089,0.0007205
2021-04-07,16:25:06.456000,-0.0027895,-0.0003331,-0.012578,0.00030697,0.00080686
2021-04-07,16:25:06.458000,-0.0030238,-0.00031999,-0.012851,0.00039325,0.00089496
2021-04-07,16:25:06.460000,-0.0031961,-0.00031041,-0.013187,0.0004677,0.0009674
2021-04-07,16:25:06.462000,-0.0032256,-0.0002935,-0.013566,0.00047596,0.0009724
2021-04-07,16:25:06.464000,-0.0030574,-0.000277,-0.013794999999999998,0.00041506,0.00090082
2021-04-07,16:25:06.466000,-0.0028003,-0.00025339,-0.013943,0.00034354,0.00081988
2021-04-07,16:25:06.468000,-0.0025480999999999998,-0.00023069,-0.014213,0.00026702,0.00074646
2021-04-07,16:25:06.470000,-0.0023390999999999998,-0.00022078,-0.014443000000000001,0.00019265,0.00068285
2021-04-07,16:25:06.472000,-0.002255,-0.00021263,-0.014491,0.00017183,0.00067847
2021-04-07,16:25:06.474000,-0.0023271,-0.00020573,-0.014519999999999998,0.00020069999999999997,0.00072327
2021-04-07,16:25:06.476000,-0.0024345,-0.00020566,-0.014547999999999998,0.00024267,0.00076325
2021-04-07,16:25:06.478000,-0.002497,-0.00020283,-0.014544999999999999,0.00027254,0.00080394
2021-04-07,16:25:06.480000,-0.0024929,-0.00018572,-0.014528999999999999,0.00026622,0.00079956
2021-04-07,16:25:06.482000,-0.0023278,-0.00016706,-0.014486,0.00021497,0.00071487
2021-04-07,16:25:06.484000,-0.0020261,-0.00016833,-0.014455,0.00012679,0.00063628
2021-04-07,16:25:06.486000,-0.0016834,-0.00017557,-0.014329,1.616e-05,0.0005309000000000001
2021-04-07,16:25:06.488000,-0.0013446,-0.00016566,-0.014100999999999999,-8.1668e-05,0.00038222
2021-04-07,16:25:06.490000,-0.0011352,-0.00015593,-0.013802000000000002,-0.00013308,0.00032479
2021-04-07,16:25:06.492000,-0.0011002,-0.00015493,-0.013358000000000002,-0.00014533,0.00034842
2021-04-07,16:25:06.494000,-0.0011637000000000002,-0.00015995,-0.012946000000000001,-0.00011223,0.00040245
2021-04-07,16:25:06.496000,-0.0012943,-0.00016898,-0.012564,-4.3306e-05,0.00047739
2021-04-07,16:25:06.498000,-0.0014355000000000001,-0.00015914,-0.012071,1.0513e-06,0.00052119
2021-04-07,16:25:06.500000,-0.0014572,-0.00014564,-0.011595999999999999,9.1562e-06,0.00053474
2021-04-07,16:25:06.502000,-0.0013205,-0.00013851,-0.011182,-9.7378e-06,0.00051673
2021-04-07,16:25:06.504000,-0.0011213,-0.00012633,-0.010809000000000001,-6.9169e-05,0.00045852
2021-04-07,16:25:06.506000,-0.00085461,-0.00012501,-0.010482,-0.00015093,0.00037272
2021-04-07,16:25:06.508000,-0.00056225,-0.00011712,-0.010142,-0.00021813,0.00030047
2021-04-07,16:25:06.510000,-0.0004079,-0.00010073,-0.0098044,-0.00025521,0.00028548
2021-04-07,16:25:06.512000,-0.00037628,-0.00010179,-0.0095156,-0.00025586,0.00029883
2021-04-07,16:25:06.514000,-0.00046327,-0.00010351,-0.0092111,-0.00020477,0.00035375
2021-04-07,16:25:06.516000,-0.0006688,-0.00010036,-0.008875399999999999,-0.00012775,0.00044765
2021-04-07,16:25:06.518000,-0.00080838,-9.0138e-05,-0.008566500000000001,-7.4324e-05,0.00050981
2021-04-07,16:25:06.520000,-0.00083101,-6.408e-05,-0.0082762,-4.888e-05,0.00053694
2021-04-07,16:25:06.522000,-0.00077678,-4.4404e-05,-0.008005199999999999,-6.653e-05,0.00052297
2021-04-07,16:25:06.524000,-0.00057793,-3.7184e-05,-0.007767100000000001,-0.00013683,0.00045804
2021-04-07,16:25:06.526000,-0.00029284,-2.6921999999999997e-05,-0.0075691000000000005,-0.00020859,0.00038514
2021-04-07,16:25:06.528000,-5.9958000000000004e-05,-5.8085e-06,-0.007371300000000001,-0.00026279,0.00033152
2021-04-07,16:25:06.530000,9.6296e-05,1.8886e-05,-0.0071316999999999995,-0.00030096,0.00030128
2021-04-07,16:25:06.532000,0.00010549999999999999,3.8885e-05,-0.006881699999999999,-0.00028251,0.00031123
2021-04-07,16:25:06.534000,-4.716e-05,6.0579e-05,-0.0066346999999999995,-0.00022073,0.0003645
2021-04-07,16:25:06.536000,-0.00020853,6.7784e-05,-0.0063844999999999996,-0.00015845,0.00043367
2021-04-07,16:25:06.538000,-0.00033962,6.4056e-05,-0.0061339,-9.129e-05,0.00050104
2021-04-07,16:25:06.540000,-0.00040907,8.373299999999999e-05,-0.0059240000000000004,-6.569800000000001e-05,0.00052755
2021-04-07,16:25:06.542000,-0.00031034,0.00010618,-0.0057532,-0.00011109,0.00049229
2021-04-07,16:25:06.544000,-8.6759e-05,0.00011679999999999999,-0.0055636,-0.00016144,0.00042925
2021-04-07,16:25:06.546000,0.00018578,0.0001291,-0.0053826,-0.00022389,0.00033781
2021-04-07,16:25:06.548000,0.00044358,0.00013281,-0.0052279,-0.00030598,0.00024319
2021-04-07,16:25:06.550000,0.0005781,0.00014067,-0.005065999999999999,-0.00033003,0.00020064
2021-04-07,16:25:06.552000,0.00056071,0.00014658,-0.0048801,-0.00030073,0.00019972
2021-04-07,16:25:06.554000,0.00044648,0.0001406,-0.0046854,-0.00023938,0.00022813
2021-04-07,16:25:06.556000,0.00027110000000000003,0.00016057,-0.0045185,-0.00014843,0.00028761
2021-04-07,16:25:06.558000,0.00010181,0.00018226,-0.0043479999999999994,-8.419100000000001e-05,0.00033423
2021-04-07,16:25:06.560000,7.4186e-05,0.00018255,-0.0041723,-5.9595e-05,0.00032739999999999993
2021-04-07,16:25:06.562000,0.00018492,0.00019281,-0.0040445,-7.3047e-05,0.00027876
2021-04-07,16:25:06.564000,0.0003951,0.00019774,-0.0039148,-0.00012482,0.00019903
2021-04-07,16:25:06.566000,0.00070618,0.00019861,-0.0037770000000000004,-0.00018166,8.928e-05
2021-04-07,16:25:06.568000,0.00095016,0.00020475,-0.0036466000000000003,-0.00022886,-2.3341999999999998e-05
2021-04-07,16:25:06.570000,0.0010481,0.00019492,-0.0034671999999999997,-0.00024396,-9.8085e-05
2021-04-07,16:25:06.572000,0.0010579,0.00019015,-0.0032744999999999996,-0.00021749999999999997,-0.00010566
2021-04-07,16:25:06.574000,0.00095178,0.0001979,-0.0030478000000000002,-0.00016029,-5.8326000000000004e-05
2021-04-07,16:25:06.576000,0.00076168,0.00018742,-0.0027531,-8.6051e-05,2.8265e-06
2021-04-07,16:25:06.578000,0.00062343,0.00016767,-0.0025085999999999997,-2.9311999999999997e-05,4.6325e-05
2021-04-07,16:25:06.580000,0.00061787,0.00016656,-0.0023131000000000002,-9.8797e-06,4.6799e-05
2021-04-07,16:25:06.582000,0.00071739,0.00017071,-0.0020689,-4.709399999999999e-05,-1.6408e-05
2021-04-07,16:25:06.584000,0.00093553,0.00016384,-0.0018331,-0.00012435,-0.00012411
2021-04-07,16:25:06.586000,0.0012422000000000002,0.00015412,-0.0016695,-0.00020575,-0.0002346
2021-04-07,16:25:06.588000,0.0014918,0.00014553,-0.0015129000000000002,-0.0002934,-0.00033094
2021-04-07,16:25:06.590000,0.0016375999999999997,0.00014488,-0.0013274,-0.00034773,-0.00039174
2021-04-07,16:25:06.592000,0.0016289000000000002,0.00014199999999999998,-0.0011192,-0.00033916,-0.00039928
2021-04-07,16:25:06.594000,0.0014690999999999999,0.00012764,-0.00089319,-0.00029935,-0.00036941
2021-04-07,16:25:06.596000,0.0013044,0.00011649,-0.00066317,-0.00024730000000000005,-0.00032208
2021-04-07,16:25:06.598000,0.0011662,0.00010358,-0.00043832,-0.00019977,-0.00028315
2021-04-07,16:25:06.600000,0.0011063,8.4617e-05,-0.00025529999999999997,-0.00019905,-0.00029216
2021-04-07,16:25:06.602000,0.0012262,6.5818e-05,-7.9761e-05,-0.00025076,-0.00035915
2021-04-07,16:25:06.604000,0.0014729,4.8513e-05,0.00013825,-0.00031367,-0.00044613
2021-04-07,16:25:06.606000,0.0017636,3.5717e-05,0.00036007,-0.00040144,-0.00053926
2021-04-07,16:25:06.608000,0.0020264,2.8585e-05,0.00060561,-0.00050232,-0.00064738
2021-04-07,16:25:06.610000,0.0021648,1.2318e-05,0.00091461,-0.00053561,-0.00071178
2021-04-07,16:25:06.612000,0.0021436999999999997,-2.8016e-05,0.0012357999999999998,-0.00051162,-0.00071029
2021-04-07,16:25:06.614000,0.0020275,-5.9612e-05,0.0015404000000000001,-0.00046654,-0.00070409
2021-04-07,16:25:06.616000,0.0018663,-7.8896e-05,0.0018210000000000001,-0.00039672,-0.00067684
2021-04-07,16:25:06.618000,0.0017104,-0.0001129,0.0020444000000000005,-0.00034205,-0.00063382
2021-04-07,16:25:06.620000,0.0017219000000000002,-0.00013284,0.0022497,-0.00033404,-0.00065305
2021-04-07,16:25:06.622000,0.0019105999999999997,-0.0001437,0.0024469,-0.00036878,-0.00072342
2021-04-07,16:25:06.624000,0.0021826000000000003,-0.00016211,0.0026122,-0.00044545,-0.00082632
2021-04-07,16:25:06.626000,0.0025381,-0.00017385,0.0027913,-0.00054243,-0.00095145
2021-04-07,16:25:06.628000,0.0028291999999999996,-0.00019742,0.0029609000000000003,-0.00061856,-0.0010566
2021-04-07,16:25:06.630000,0.0029454999999999998,-0.00022061,0.0031107,-0.00064642,-0.0011288000000000001
2021-04-07,16:25:06.632000,0.0029524,-0.00023449,0.0032726,-0.00063179,-0.0011375
2021-04-07,16:25:06.634000,0.0028566999999999998,-0.00025523,0.0034101,-0.00058786,-0.0010927999999999999
2021-04-07,16:25:06.636000,0.0026831,-0.00026399,0.003542,-0.00052277,-0.0010467
2021-04-07,16:25:06.638000,0.0025634,-0.00027786,0.003664,-0.00047616,-0.0010073
2021-04-07,16:25:06.640000,0.0025953000000000005,-0.00029895,0.0037353,-0.00047522,-0.0010089
2021-04-07,16:25:06.642000,0.002739,-0.00031017,0.0037806,-0.00051851,-0.0010724999999999999
2021-04-07,16:25:06.644000,0.0029875,-0.00033691,0.0037417,-0.00059895,-0.0011618
2021-04-07,16:25:06.646000,0.0033211,-0.00034829,0.0036335,-0.00068802,-0.0012656
2021-04-07,16:25:06.648000,0.0035759999999999998,-0.00034588,0.0035725,-0.00076804,-0.0013610999999999999
2021-04-07,16:25:06.650000,0.0036875999999999996,-0.00036866,0.0035659,-0.00079866,-0.0013932
2021-04-07,16:25:06.652000,0.003633,-0.00037773,0.0036393000000000003,-0.00075702,-0.0013666
2021-04-07,16:25:06.654000,0.0034306,-0.00038881,0.0037678000000000004,-0.00070111,-0.0013210000000000001
2021-04-07,16:25:06.656000,0.0032409999999999995,-0.00041825,0.0038856999999999997,-0.00063802,-0.0012547
2021-04-07,16:25:06.658000,0.0031016,-0.00042027,0.0039829,-0.0005655,-0.0011874000000000001
2021-04-07,16:25:06.660000,0.0030455,-0.0004138,0.0040111999999999995,-0.00055448,-0.0011830999999999999
2021-04-07,16:25:06.662000,0.0031698,-0.00041971,0.0040099,-0.00060615,-0.0012378
2021-04-07,16:25:06.664000,0.0034063,-0.00042741,0.003995,-0.00066697,-0.0013034000000000001
2021-04-07,16:25:06.666000,0.0036689,-0.00043214,0.0039182999999999996,-0.00074671,-0.0013932
2021-04-07,16:25:06.668000,0.003906499999999999,-0.00043896,0.0038420999999999998,-0.00083141,-0.0014927999999999999
2021-04-07,16:25:06.670000,0.0040151,-0.00045621,0.0038104,-0.00085267,-0.0015284
2021-04-07,16:25:06.672000,0.0039448,-0.00046053,0.0038071,-0.00081954,-0.001505
2021-04-07,16:25:06.674000,0.0037689999999999998,-0.00046484,0.0037845999999999995,-0.0007717000000000001,-0.0014653
2021-04-07,16:25:06.676000,0.0035562,-0.00048233,0.0037216999999999997,-0.00070224,-0.0014018
2021-04-07,16:25:06.678000,0.0033640000000000002,-0.00048385,0.0036384,-0.00064395,-0.0013428
2021-04-07,16:25:06.680000,0.0033473,-0.00048432,0.0035085,-0.00064794,-0.0013406
2021-04-07,16:25:06.682000,0.0035055,-0.00048878,0.003329,-0.0007019,-0.0013875
2021-04-07,16:25:06.684000,0.0037304,-0.00048992,0.0031466,-0.00078034,-0.001472
2021-04-07,16:25:06.686000,0.0040324,-0.00049195,0.0029854,-0.00088282,-0.0015734000000000002
2021-04-07,16:25:06.688000,0.0042883999999999995,-0.00049368,0.0027745,-0.00096618,-0.0016514
2021-04-07,16:25:06.690000,0.004363199999999999,-0.00050993,0.0025461999999999998,-0.00098649,-0.001689
2021-04-07,16:25:06.692000,0.004301300000000001,-0.00051397,0.0024931999999999997,-0.0009697000000000001,-0.0016618
2021-04-07,16:25:06.694000,0.004131,-0.0005003,0.0025923,-0.00091872,-0.0015909000000000001
2021-04-07,16:25:06.696000,0.0038902999999999997,-0.00049953,0.002718,-0.00083871,-0.0015206
2021-04-07,16:25:06.698000,0.0037042999999999998,-0.00049156,0.0028945999999999998,-0.00078118,-0.0014599
2021-04-07,16:25:06.700000,0.0036779000000000004,-0.00048459,0.0031101999999999996,-0.00076569,-0.0014418
2021-04-07,16:25:06.702000,0.0037941000000000003,-0.00049544,0.0032616,-0.00080526,-0.0014717
2021-04-07,16:25:06.704000,0.0040114,-0.00050024,0.0033134999999999996,-0.00089188,-0.001536
2021-04-07,16:25:06.706000,0.0042912,-0.00049264,0.0033316,-0.00098202,-0.0016238
2021-04-07,16:25:06.708000,0.0045138,-0.00048142,0.0033593000000000004,-0.0010589,-0.0016878
2021-04-07,16:25:06.710000,0.0045902,-0.00048067,0.0033860999999999995,-0.0010951,-0.0017052
2021-04-07,16:25:06.712000,0.0044855,-0.00048215,0.0034106,-0.0010655999999999999,-0.0016694000000000004
2021-04-07,16:25:06.714000,0.0042491000000000004,-0.00047436,0.0034542,-0.0010047,-0.0015932000000000001
2021-04-07,16:25:06.716000,0.0040171,-0.00047189,0.0034948,-0.00094154,-0.0015149
2021-04-07,16:25:06.718000,0.0038292,-0.00046008,0.0035051,-0.00088291,-0.0014422
2021-04-07,16:25:06.720000,0.0037405,-0.00044073,0.0035156,-0.00087292,-0.0014094
2021-04-07,16:25:06.722000,0.0038528,-0.00043589,0.0035164000000000003,-0.00092846,-0.0014555
2021-04-07,16:25:06.724000,0.0040728000000000006,-0.00042688,0.0034963,-0.0010021000000000001,-0.0015283
2021-04-07,16:25:06.726000,0.0042823,-0.00042185,0.0034749000000000004,-0.0010809,-0.0015939
2021-04-07,16:25:06.728000,0.0044729999999999995,-0.00042391,0.0034542,-0.0011548,-0.0016583
2021-04-07,16:25:06.730000,0.0045033,-0.00040626,0.003445,-0.0011713,-0.0016609
2021-04-07,16:25:06.732000,0.0043195,-0.00039364,0.0034431999999999996,-0.0011247,-0.0015993000000000001
2021-04-07,16:25:06.734000,0.004107,-0.00038849,0.0034661,-0.0010525,-0.0015222
2021-04-07,16:25:06.736000,0.0038668,-0.00036065,0.0035154000000000006,-0.00097038,-0.0014142999999999998
2021-04-07,16:25:06.738000,0.0036045,-0.00033202,0.0035323999999999998,-0.0009006,-0.0013355
2021-04-07,16:25:06.740000,0.0035339,-0.00031233,0.0035095,-0.00089044,-0.0013285
2021-04-07,16:25:06.742000,0.0036444000000000003,-0.00029244,0.0034784,-0.00093236,-0.0013367000000000001
2021-04-07,16:25:06.744000,0.0038091,-0.00028008,0.003438,-0.00099302,-0.0013840999999999999
2021-04-07,16:25:06.746000,0.0040168,-0.00026147,0.0033970999999999997,-0.0010782,-0.0014625
2021-04-07,16:25:06.748000,0.0041731,-0.00024332,0.0034067,-0.0011353,-0.0014954
2021-04-07,16:25:06.750000,0.004155399999999999,-0.00024122,0.0034652999999999997,-0.0011223,-0.00148
2021-04-07,16:25:06.752000,0.003973900000000001,-0.00022404,0.0035274,-0.0010785999999999999,-0.0014112999999999999
2021-04-07,16:25:06.754000,0.0036931999999999993,-0.00019351,0.0035871,-0.001003,-0.0013027000000000002
2021-04-07,16:25:06.756000,0.0033652,-0.00017656,0.003638,-0.00090285,-0.0012028
2021-04-07,16:25:06.758000,0.0030976,-0.00015922,0.0036891999999999997,-0.00082271,-0.0011152999999999998
2021-04-07,16:25:06.760000,0.0029942,-0.00013841,0.0037396,-0.00078673,-0.0010634
2021-04-07,16:25:06.762000,0.0030379,-0.00012111,0.0037650999999999995,-0.00081202,-0.0010837
2021-04-07,16:25:06.764000,0.0031796,-0.0001028,0.0037821999999999995,-0.00087353,-0.0011420999999999998
2021-04-07,16:25:06.766000,0.0033564,-8.8912e-05,0.0037966000000000002,-0.00092508,-0.0011823
2021-04-07,16:25:06.768000,0.0034628999999999997,-8.341799999999999e-05,0.0038104999999999997,-0.00095393,-0.0011992
2021-04-07,16:25:06.770000,0.0034168,-8.0484e-05,0.0038438,-0.0009460000000000001,-0.0011834
2021-04-07,16:25:06.772000,0.0031781999999999995,-6.7307e-05,0.0038861999999999994,-0.0008792,-0.0011
2021-04-07,16:25:06.774000,0.0028307,-5.4041999999999995e-05,0.003914,-0.00077212,-0.00097892
2021-04-07,16:25:06.776000,0.0024864,-5.0571999999999996e-05,0.0039439,-0.00065865,-0.00085927
2021-04-07,16:25:06.778000,0.0021851999999999996,-3.699e-05,0.0039797,-0.00056293,-0.00075084
2021-04-07,16:25:06.780000,0.0020318,-2.1473000000000003e-05,0.0039719,-0.00052394,-0.00070449
2021-04-07,16:25:06.782000,0.0020818,-1.345e-05,0.0039299999999999995,-0.00053957,-0.00072255
2021-04-07,16:25:06.784000,0.0022061999999999997,-1.0447e-05,0.0038865,-0.00057393,-0.00075438
2021-04-07,16:25:06.786000,0.0023135,-2.1927e-05,0.0038379,-0.00061766,-0.00079999
2021-04-07,16:25:06.788000,0.0024089000000000003,-2.7136e-05,0.0037659,-0.00064806,-0.00082524
2021-04-07,16:25:06.790000,0.0023308000000000005,-1.9188e-05,0.0036884,-0.00062691,-0.0007768
2021-04-07,16:25:06.792000,0.002022,-1.8479e-05,0.0036701999999999998,-0.00054481,-0.00068226
2021-04-07,16:25:06.794000,0.0017120000000000002,-1.8172e-05,0.0035915999999999995,-0.00042649999999999996,-0.00056168
2021-04-07,16:25:06.796000,0.0013885999999999998,-2.7866e-07,0.0033816000000000002,-0.00030831,-0.00042347
2021-04-07,16:25:06.798000,0.0010288,2.2958000000000003e-05,0.0031931,-0.00022295,-0.00031513
2021-04-07,16:25:06.800000,0.00086093,2.4841999999999997e-05,0.0030464000000000003,-0.00018562,-0.00026831
2021-04-07,16:25:06.802000,0.00088954,2.4951999999999998e-05,0.00288,-0.00017843,-0.00027324
2021-04-07,16:25:06.804000,0.00097045,3.0509000000000002e-05,0.0025964,-0.00019716,-0.00030025
2021-04-07,16:25:06.806000,0.0010756,2.2674e-05,0.0021993000000000004,-0.00023504,-0.00033172
2021-04-07,16:25:06.808000,0.0011462999999999998,2.4414e-05,0.0019039999999999999,-0.0002407,-0.00034194
2021-04-07,16:25:06.810000,0.0010292,3.7319e-05,0.0017131,-0.00019801,-0.00030018
2021-04-07,16:25:06.812000,0.00072367,4.5925e-05,0.001452,-0.00010854,-0.00019045
2021-04-07,16:25:06.814000,0.00034418,4.9801000000000007e-05,0.0010974000000000001,2.227e-05,-4.4566999999999995e-05
2021-04-07,16:25:06.816000,-8.1912e-05,5.4428e-05,0.00073057,0.00014298,7.942e-05
2021-04-07,16:25:06.818000,-0.00044548,6.9664e-05,0.00038138,0.00024501,0.00019830000000000002
2021-04-07,16:25:06.820000,-0.00063242,7.537e-05,1.6091e-05,0.00032612,0.00028662
2021-04-07,16:25:06.822000,-0.00065971,8.562e-05,-0.00031373,0.00033934,0.00029006
2021-04-07,16:25:06.824000,-0.00056562,0.00011808,-0.00056293,0.00029827,0.00026609
2021-04-07,16:25:06.826000,-0.00043348,0.00013165,-0.00085768,0.00025762,0.00024604
2021-04-07,16:25:06.828000,-0.00034413,0.00012651,-0.0011387,0.00023040000000000002,0.00021954
2021-04-07,16:25:06.830000,-0.00038608,0.00013822,-0.001179,0.00023508,0.00023285
2021-04-07,16:25:06.832000,-0.0006401,0.00016521,-0.0011077,0.00031259,0.00032283
2021-04-07,16:25:06.834000,-0.00099813,0.00017348,-0.0011044,0.00043196,0.00044773
2021-04-07,16:25:06.836000,-0.0013507999999999999,0.00017868,-0.0011102,0.00054744,0.00057225
2021-04-07,16:25:06.838000,-0.0016687000000000002,0.00020984,-0.0011405999999999999,0.0006569,0.00069223
2021-04-07,16:25:06.840000,-0.0018099,0.00022916,-0.0012116,0.00070598,0.00074377
2021-04-07,16:25:06.842000,-0.0017219000000000002,0.00024747,-0.0012359000000000003,0.00067448,0.00071865
2021-04-07,16:25:06.844000,-0.001567,0.0002693,-0.0012668,0.00062755,0.00068327
2021-04-07,16:25:06.846000,-0.0014231,0.00025912,-0.0013660999999999999,0.00056464,0.00061766
2021-04-07,16:25:06.848000,-0.0012456,0.00024746,-0.0013864,0.00048782,0.00053324
2021-04-07,16:25:06.850000,-0.0012494000000000001,0.00024181,-0.0013379000000000002,0.00048834,0.00053797
2021-04-07,16:25:06.852000,-0.0015886,0.00024269,-0.0012947000000000002,0.00058123,0.00064158
2021-04-07,16:25:06.854000,-0.0019897,0.00025687,-0.0011708,0.00071196,0.000793
2021-04-07,16:25:06.856000,-0.0023916000000000002,0.00026074,-0.0010412000000000002,0.00085105,0.00095824
2021-04-07,16:25:06.858000,-0.0027684999999999997,0.00027538,-0.00094364,0.00093919,0.0010579
2021-04-07,16:25:06.860000,-0.00286,0.00030404,-0.00085168,0.00094808,0.0010739
2021-04-07,16:25:06.862000,-0.0027398,0.00032367,-0.0008192,0.00090184,0.0010394
2021-04-07,16:25:06.864000,-0.0025423000000000004,0.00033895,-0.00075894,0.00081819,0.00096825
2021-04-07,16:25:06.866000,-0.0022965,0.00033844,-0.0006594,0.00074053,0.00090021
2021-04-07,16:25:06.868000,-0.0021353,0.00032471,-0.0005745,0.00069358,0.00084926
2021-04-07,16:25:06.870000,-0.0021298000000000003,0.00032599999999999996,-0.00045872,0.00067809,0.00083494
2021-04-07,16:25:06.872000,-0.0022636999999999996,0.00034043,-0.00034298,0.00071076,0.00087685
2021-04-07,16:25:06.874000,-0.0024534,0.00034307,-0.00023913,0.00077064,0.00093849
2021-04-07,16:25:06.876000,-0.0026611,0.00032717,-0.00012739,0.00082591,0.00099522
2021-04-07,16:25:06.878000,-0.0028108,0.00032373,-3.969e-05,0.0008568,0.0010279999999999998
2021-04-07,16:25:06.880000,-0.0027736,0.00034757,1.417e-05,0.00083357,0.0010109
2021-04-07,16:25:06.882000,-0.0026037,0.00035501,3.5282e-05,0.00075896,0.00093332
2021-04-07,16:25:06.884000,-0.0023355,0.00034025,4.0258e-05,0.00065842,0.00082181
2021-04-07,16:25:06.886000,-0.0020055,0.00033198,4.3864e-05,0.00056114,0.00072038
2021-04-07,16:25:06.888000,-0.0017577000000000003,0.00032025,5.404e-05,0.00048987,0.00062704
2021-04-07,16:25:06.890000,-0.0016409000000000003,0.00031588,7.9786e-05,0.00045486,0.0005713999999999999
2021-04-07,16:25:06.892000,-0.0016759000000000001,0.00031725,0.00011757,0.00048078,0.00060022
2021-04-07,16:25:06.894000,-0.0018265999999999998,0.00029408,0.00015857,0.00054154,0.0006461
2021-04-07,16:25:06.896000,-0.0019487000000000003,0.00026726,0.00016767,0.00058458,0.00065599
2021-04-07,16:25:06.898000,-0.0019841,0.00025307,0.0001618,0.00061078,0.00065015
2021-04-07,16:25:06.900000,-0.0019002,0.00024095,0.00014824,0.00057829,0.00059343
2021-04-07,16:25:06.902000,-0.0015983,0.00024730000000000005,9.476e-05,0.00046169,0.00048327
2021-04-07,16:25:06.904000,-0.0011768,0.00026221,6.6249e-05,0.00034567,0.00035806
2021-04-07,16:25:06.906000,-0.00080273,0.00025468,6.271300000000001e-05,0.00025347,0.00021898
2021-04-07,16:25:06.908000,-0.00046862,0.00024819,5.5291e-05,0.00016048,0.00010671
2021-04-07,16:25:06.910000,-0.00031529,0.00024791,0.0001008,0.00011598,5.144e-05
2021-04-07,16:25:06.912000,-0.00040547,0.00023008,0.00017795,0.0001348,5.3536000000000004e-05
2021-04-07,16:25:06.914000,-0.00052664,0.00021088,0.00027268,0.00018674,0.00010812
2021-04-07,16:25:06.916000,-0.00066951,0.00019762,0.00037557,0.00024599,0.00016406
2021-04-07,16:25:06.918000,-0.00080693,0.00018562,0.00043650000000000004,0.00025548,0.00017264
2021-04-07,16:25:06.920000,-0.00074974,0.00017519,0.00048158,0.00021572,0.00013107
2021-04-07,16:25:06.922000,-0.00053943,0.00016173,0.00053576,0.00016897,7.361e-05
2021-04-07,16:25:06.924000,-0.00029655,0.00014316,0.00058186,9.6443e-05,-1.1535e-05
2021-04-07,16:25:06.926000,-4.3162e-05,0.0001261,0.0006047,1.5175e-05,-0.00011202
2021-04-07,16:25:06.928000,0.00012807,0.00011965,0.00062346,-2.8699e-05,-0.0001421
2021-04-07,16:25:06.930000,9.200299999999999e-05,0.00010099,0.00061818,-2.4854e-05,-0.00011714
2021-04-07,16:25:06.932000,-0.00012947,6.9711e-05,0.00056129,4.5575e-05,-3.7267e-05
2021-04-07,16:25:06.934000,-0.00046633,5.0369e-05,0.00053629,0.00015294,0.00011337
2021-04-07,16:25:06.936000,-0.00084712,3.9999e-05,0.00049057,0.00024597,0.00023099
2021-04-07,16:25:06.938000,-0.0011388,4.6511e-05,0.00037584,0.00033217,0.00031467
2021-04-07,16:25:06.940000,-0.0012892000000000001,6.0842e-05,0.00033725,0.00039358,0.0003919
2021-04-07,16:25:06.942000,-0.0012569,7.048e-05,0.00029875,0.00038426,0.00039287
2021-04-07,16:25:06.944000,-0.0010877,9.5936e-05,0.00015053,0.00033237,0.00035314
2021-04-07,16:25:06.946000,-0.00097648,0.00013488,1.3224e-05,0.00029469,0.00034609
2021-04-07,16:25:06.927000,-0.0018090999999999997,-0.00094978,-0.0034268000000000002,0.0013879,0.00047715
2021-04-07,16:25:06.929000,-0.0040413,-0.0011556,-0.0036696,0.0024399,0.0011071
2021-04-07,16:25:06.931000,-0.0028316,-0.00097406,-0.0035923,0.0017862000000000002,0.00079103
2021-04-07,16:25:06.933000,-0.0043476999999999995,-0.0010369,-0.0037546,0.0024343000000000004,0.0012446
2021-04-07,16:25:06.935000,-0.0044037,-0.0009548,-0.0037906,0.0023929000000000003,0.0013061
2021-04-07,16:25:06.937000,-0.0048692,-0.00091361,-0.0038106999999999998,0.0025319,0.001475
2021-04-07,16:25:06.939000,-0.005455699999999999,-0.00091347,-0.0038466999999999998,0.0027585,0.001689
2021-04-07,16:25:06.941000,-0.0052952,-0.00086003,-0.0038268,0.0026487,0.0016874000000000001
2021-04-07,16:25:06.943000,-0.005679200000000001,-0.00084304,-0.0038242,0.0027936,0.0018196999999999998
2021-04-07,16:25:06.945000,-0.005758600000000001,-0.00077985,-0.0037064999999999997,0.0027741,0.0018695999999999997
2021-04-07,16:25:06.947000,-0.0060551,-0.00073694,-0.003508,0.0028596,0.0020027
2021-04-07,16:25:06.949000,-0.006674500000000001,-0.00071879,-0.0032235,0.0030578000000000003,0.0022329999999999997
2021-04-07,16:25:06.951000,-0.0074656,-0.00069178,-0.0028753,0.0032541,0.0024909000000000003
2021-04-07,16:25:06.953000,-0.0083479,-0.0006745,-0.0025085999999999997,0.0035736999999999995,0.0028241
2021-04-07,16:25:06.955000,-0.0090923,-0.00065195,-0.0020833,0.0038347999999999998,0.0031223
2021-04-07,16:25:06.957000,-0.009997200000000001,-0.00062495,-0.0017234000000000001,0.0040793,0.0034174999999999995
2021-04-07,16:25:06.959000,-0.01065,-0.00060704,-0.0014124,0.0042708,0.0036669000000000003
2021-04-07,16:25:06.961000,-0.011051,-0.00060507,-0.0010874,0.0043669,0.0038117
2021-04-07,16:25:06.963000,-0.011451000000000001,-0.00058002,-0.00075617,0.0044533,0.0039201999999999996
2021-04-07,16:25:06.965000,-0.011772,-0.00057229,-0.00039273,0.0045512,0.0040287
2021-04-07,16:25:06.967000,-0.012098999999999999,-0.00058795,-6.718800000000001e-05,0.004673,0.0041547
2021-04-07,16:25:06.969000,-0.012537999999999999,-0.00056265,0.00022755,0.0048133,0.0043233
2021-04-07,16:25:06.971000,-0.013134,-0.0005521,0.00053556,0.0049851999999999995,0.0045264
2021-04-07,16:25:06.973000,-0.013728,-0.00055728,0.00081143,0.0051698000000000004,0.0047298999999999996
2021-04-07,16:25:06.975000,-0.014246,-0.00054356,0.00099208,0.0052966,0.0048891
2021-04-07,16:25:06.977000,-0.014552,-0.00053772,0.0011287,0.0053551,0.0049816
2021-04-07,16:25:06.979000,-0.014569,-0.00052225,0.0012462,0.005353899999999999,0.0050051
2021-04-07,16:25:06.981000,-0.014362999999999999,-0.00050304,0.0012392000000000002,0.0052563,0.0049368
2021-04-07,16:25:06.983000,-0.013947999999999999,-0.00049543,0.0011832000000000001,0.0051034,0.0048056
2021-04-07,16:25:06.985000,-0.013575,-0.00049276,0.001068,0.004963800000000001,0.004673
2021-04-07,16:25:06.987000,-0.013278,-0.00049378,0.00087303,0.0048346000000000005,0.0045604
2021-04-07,16:25:06.989000,-0.013037,-0.00048937,0.00073753,0.0047528,0.0044912
2021-04-07,16:25:06.991000,-0.013012000000000001,-0.00049032,0.00055755,0.0047464,0.0044785
2021-04-07,16:25:06.993000,-0.013083000000000001,-0.0004948,0.00029753,0.004758699999999999,0.0044802
2021-04-07,16:25:06.995000,-0.013092,-0.00049858,3.3793999999999998e-06,0.0047582,0.004481199999999999
2021-04-07,16:25:06.997000,-0.013013,-0.00049795,-0.00032896,0.0047407,0.0044778
2021-04-07,16:25:06.999000,-0.012824,-0.00048237,-0.00069608,0.0046592,0.004382100000000001
2021-04-07,16:25:07.001000,-0.012429,-0.00047321,-0.0011035,0.0045159,0.004222600000000001
2021-04-07,16:25:07.003000,-0.011881999999999998,-0.00045531,-0.0014131999999999999,0.0043623,0.0040768
2021-04-07,16:25:07.005000,-0.011406999999999999,-0.00043587,-0.0018047999999999999,0.0042146,0.0038950000000000005
2021-04-07,16:25:07.007000,-0.010990999999999999,-0.00044774,-0.0023074000000000002,0.004116300000000001,0.0037492
2021-04-07,16:25:07.009000,-0.01075,-0.00043474,-0.0025399,0.004080100000000001,0.0037071999999999995
2021-04-07,16:25:07.011000,-0.0108,-0.00041005,-0.0026371,0.0040796999999999995,0.0037108
2021-04-07,16:25:07.013000,-0.010935,-0.00041929,-0.0027947,0.0041448,0.0037786
2021-04-07,16:25:07.015000,-0.011183,-0.00041148,-0.0029614999999999997,0.0042621000000000004,0.0038942
2021-04-07,16:25:07.017000,-0.011524,-0.00038945,-0.0031515000000000002,0.0043531,0.0039858
2021-04-07,16:25:07.019000,-0.01167,-0.00037519,-0.0033501999999999994,0.0043878,0.0040237
2021-04-07,16:25:07.021000,-0.011594,-0.00036292,-0.0035832999999999998,0.0043705,0.0039953
2021-04-07,16:25:07.023000,-0.011346,-0.00036422,-0.0038085999999999997,0.004286600000000001,0.0039038000000000002
2021-04-07,16:25:07.025000,-0.010984,-0.00035677,-0.0040129,0.0041656,0.0037695999999999997
2021-04-07,16:25:07.027000,-0.010693000000000001,-0.00033781,-0.0042235,0.0040661000000000004,0.0036610999999999996
2021-04-07,16:25:07.029000,-0.010551000000000001,-0.00033376,-0.0043853,0.004010499999999999,0.003622
2021-04-07,16:25:07.031000,-0.010543,-0.00033569,-0.00454,0.0040159,0.0036262
2021-04-07,16:25:07.033000,-0.01066,-0.000331,-0.0047291,0.0040558999999999994,0.0036481
2021-04-07,16:25:07.035000,-0.010808,-0.00032785,-0.004917899999999999,0.0040826000000000005,0.0036621
2021-04-07,16:25:07.037000,-0.010827,-0.00032885,-0.005077,0.0040841,0.0036710000000000002
2021-04-07,16:25:07.039000,-0.010711,-0.00033574,-0.0051787,0.0040518,0.0036485999999999997
2021-04-07,16:25:07.041000,-0.010454999999999999,-0.00036853,-0.0052246,0.003988599999999999,0.0035248000000000007
2021-04-07,16:25:07.043000,-0.010048,-0.00040385,-0.0052301000000000005,0.0039014,0.0033404000000000003
2021-04-07,16:25:07.045000,-0.0097176,-0.00042445,-0.005176600000000001,0.0038225999999999998,0.0031691999999999996
2021-04-07,16:25:07.047000,-0.0095109,-0.00047921,-0.005071,0.0037803000000000003,0.0030305999999999996
2021-04-07,16:25:07.049000,-0.0093814,-0.00054624,-0.0049532,0.0037768999999999997,0.0029462
2021-04-07,16:25:07.051000,-0.0094924,-0.00058432,-0.0047832000000000005,0.0038575000000000003,0.0029381999999999998
2021-04-07,16:25:07.053000,-0.009749700000000002,-0.00059168,-0.0045516,0.0039762,0.0030129
2021-04-07,16:25:07.055000,-0.009921600000000001,-0.00054706,-0.004311199999999999,0.0040568,0.0030816
2021-04-07,16:25:07.057000,-0.010006000000000001,-0.00048120000000000004,-0.0040764,0.0041218999999999995,0.0030928
2021-04-07,16:25:07.059000,-0.009976899999999999,-0.00040439,-0.0038954999999999997,0.0041218,0.0031123
2021-04-07,16:25:07.061000,-0.0097537,-0.00031156,-0.0037677,0.0040611,0.0031232
2021-04-07,16:25:07.063000,-0.0094485,-0.00021481,-0.0036579,0.004012,0.0031166
2021-04-07,16:25:07.065000,-0.0091834,-4.8611000000000006e-05,-0.0035681999999999997,0.0039482,0.0031331999999999996
2021-04-07,16:25:07.067000,-0.008981399999999999,0.00018226,-0.0034281999999999997,0.0039074,0.0031847
2021-04-07,16:25:07.069000,-0.008971999999999999,0.00039845,-0.0032408999999999997,0.0038954999999999997,0.0033167
2021-04-07,16:25:07.071000,-0.009145299999999999,0.0005981,-0.0030552,0.0038159,0.0035047
2021-04-07,16:25:07.073000,-0.009311,0.00083984,-0.0028047,0.0036981,0.0037225
2021-04-07,16:25:07.075000,-0.0094921,0.0010807,-0.0025369,0.0036128,0.0039635
2021-04-07,16:25:07.077000,-0.0096634,0.0011775,-0.0023346,0.0034695,0.004102199999999999
2021-04-07,16:25:07.079000,-0.0095949,0.0012303,-0.0021524,0.0032429000000000004,0.0041383
2021-04-07,16:25:07.081000,-0.009325299999999998,0.0013022,-0.0019741,0.0030815,0.004137399999999999
2021-04-07,16:25:07.083000,-0.0090325,0.0012134000000000001,-0.0017992000000000001,0.0029179,0.0040336
2021-04-07,16:25:07.085000,-0.0087479,0.0010645,-0.0016381,0.0026908,0.0038902
2021-04-07,16:25:07.087000,-0.0086353,0.00091699,-0.001485,0.0025734,0.0038161000000000002
2021-04-07,16:25:07.089000,-0.0087867,0.0006305,-0.001324,0.0025708000000000003,0.0037641999999999997
2021-04-07,16:25:07.091000,-0.0090806,0.00033815,-0.0012040999999999998,0.0026927,0.0037263000000000005
2021-04-07,16:25:07.093000,-0.0095834,0.00010616,-0.0011622,0.0029289999999999997,0.0037689
2021-04-07,16:25:07.095000,-0.010191,-9.580700000000001e-05,-0.0011289000000000002,0.0031298000000000003,0.0038428000000000004
2021-04-07,16:25:07.097000,-0.010559,-0.00017598,-0.00095897,0.0033104999999999996,0.0038501999999999994
2021-04-07,16:25:07.099000,-0.010676999999999999,-0.00021393,-0.00067442,0.0034271,0.0038020000000000003
2021-04-07,16:25:07.101000,-0.010593,-0.00024357,-0.00036472,0.0034542,0.0036923999999999998
2021-04-07,16:25:07.103000,-0.010329999999999999,-0.00018556,-3.4625e-05,0.0034565,0.0035415
2021-04-07,16:25:07.105000,-0.010109,-0.00011811,0.00029766,0.0034482,0.0034292000000000003
2021-04-07,16:25:07.107000,-0.010033,-8.6998e-05,0.00063217,0.0035039000000000003,0.0033408
2021-04-07,16:25:07.109000,-0.010098000000000001,-6.828699999999999e-05,0.00091478,0.0035082,0.0033281999999999995
2021-04-07,16:25:07.111000,-0.010345,-3.7411e-05,0.0011890999999999998,0.0035399,0.0034381
2021-04-07,16:25:07.113000,-0.010718,2.4837e-05,0.0015278,0.0037897,0.0035740999999999998
2021-04-07,16:25:07.115000,-0.011047,6.6186e-05,0.0018256,0.0039840000000000006,0.0036845999999999997
2021-04-07,16:25:07.117000,-0.011257,9.3859e-05,0.0020608000000000002,0.004055,0.0037365000000000002
2021-04-07,16:25:07.119000,-0.011336,0.00011671,0.0022615,0.0040916,0.0037204
2021-04-07,16:25:07.121000,-0.011212,8.773e-05,0.0024247,0.0040301,0.0036573
2021-04-07,16:25:07.123000,-0.010967,5.3329e-05,0.0025588,0.0039482,0.0035375
2021-04-07,16:25:07.125000,-0.010731999999999998,4.5537e-05,0.0026579999999999998,0.0038648000000000003,0.0034109
2021-04-07,16:25:07.127000,-0.010556,2.9629e-05,0.0027618,0.0038093000000000003,0.0033418
2021-04-07,16:25:07.129000,-0.010589,2.0143e-05,0.0028919,0.0038404000000000003,0.0033546
2021-04-07,16:25:07.131000,-0.010822,3.2116e-05,0.0030291,0.0039095,0.0034354
2021-04-07,16:25:07.133000,-0.011142,2.0961999999999997e-05,0.0031788,0.0040131,0.0035335
2021-04-07,16:25:07.135000,-0.011493000000000001,-8.8319e-08,0.0033424999999999996,0.0041347,0.0036308
2021-04-07,16:25:07.137000,-0.011696,1.4825999999999998e-05,0.0034491,0.004197,0.0036899999999999997
2021-04-07,16:25:07.139000,-0.011687999999999999,1.1751e-05,0.003476,0.0041838,0.0036749
2021-04-07,16:25:07.141000,-0.011541,-4.3317e-06,0.0034990000000000004,0.0041417,0.0036176000000000003
2021-04-07,16:25:07.143000,-0.011261,3.0312e-06,0.0035010999999999996,0.0040622,0.0035210000000000003
2021-04-07,16:25:07.145000,-0.010961,-7.4416e-06,0.0034759,0.003961500000000001,0.0034086
2021-04-07,16:25:07.147000,-0.010822,-9.8384e-06,0.0034869999999999996,0.0039196,0.0033594000000000002
2021-04-07,16:25:07.149000,-0.01089,-1.2606e-05,0.0035279000000000005,0.0039375,0.0033849000000000006
2021-04-07,16:25:07.151000,-0.011092,-4.2517e-05,0.0035945,0.004024300000000001,0.003464
2021-04-07,16:25:07.153000,-0.011412,-4.7971000000000005e-05,0.0036756999999999996,0.0041670000000000006,0.0035884999999999997
2021-04-07,16:25:07.155000,-0.011784000000000001,-4.9707e-05,0.0037385999999999995,0.0042708,0.0037145000000000004
2021-04-07,16:25:07.157000,-0.012004,-6.0242e-05,0.0037799,0.0043261,0.0037865000000000004
2021-04-07,16:25:07.159000,-0.012032,-5.6838999999999996e-05,0.003804,0.0043576,0.0037914999999999997
2021-04-07,16:25:07.161000,-0.011904999999999999,-6.464699999999999e-05,0.0038354,0.0043294,0.0037439
2021-04-07,16:25:07.163000,-0.011633,-8.0016e-05,0.0038640000000000002,0.0042439999999999995,0.0036549
2021-04-07,16:25:07.165000,-0.011398,-8.712200000000001e-05,0.0039044000000000006,0.0041747,0.0035594999999999997
2021-04-07,16:25:07.167000,-0.011329,-9.384399999999999e-05,0.0040044,0.004156399999999999,0.0035158999999999998
2021-04-07,16:25:07.169000,-0.011420999999999999,-0.00011469,0.004123399999999999,0.0042019,0.0035625
2021-04-07,16:25:07.171000,-0.011722,-0.00013423,0.004266399999999999,0.0043289999999999995,0.0036726999999999997
2021-04-07,16:25:07.173000,-0.012175,-0.00013030000000000002,0.0044558,0.0044805,0.0037976999999999998
2021-04-07,16:25:07.175000,-0.012606000000000001,-0.0001298,0.0046316000000000005,0.0046229999999999995,0.0039378
2021-04-07,16:25:07.177000,-0.012921,-0.00013136,0.0047832000000000005,0.004742499999999999,0.0040551
2021-04-07,16:25:07.179000,-0.013056,-0.00012902,0.0049199,0.004783600000000001,0.0040938
2021-04-07,16:25:07.181000,-0.012969999999999999,-0.00015136,0.0050293,0.0047629,0.0040687
2021-04-07,16:25:07.183000,-0.012768,-0.00017006,0.0051301,0.004714899999999999,0.0039991
2021-04-07,16:25:07.185000,-0.012567,-0.00017419,0.0052332,0.0046604,0.0039149
2021-04-07,16:25:07.187000,-0.012473,-0.00018984,0.0053661,0.004653899999999999,0.003886
2021-04-07,16:25:07.189000,-0.012645,-0.00019173,0.005561600000000001,0.0047226,0.0039573
2021-04-07,16:25:07.191000,-0.013052000000000001,-0.00019939,0.0057797,0.004858100000000001,0.0040916
2021-04-07,16:25:07.193000,-0.013561000000000002,-0.00023219,0.0060066,0.005039500000000001,0.004249899999999999
2021-04-07,16:25:07.195000,-0.014081999999999999,-0.00024796,0.0062396,0.0052213,0.0044104
2021-04-07,16:25:07.197000,-0.014427,-0.00026010000000000003,0.0064209,0.0053392,0.0045065
2021-04-07,16:25:07.199000,-0.014519999999999998,-0.00027019,0.0065466000000000005,0.0053729,0.0045396
2021-04-07,16:25:07.201000,-0.014450999999999999,-0.00027196,0.0066503,0.0053601000000000005,0.0045303
2021-04-07,16:25:07.203000,-0.014254,-0.00028636,0.0067402,0.0053048999999999995,0.0044622
2021-04-07,16:25:07.205000,-0.014005000000000002,-0.00028995,0.006833700000000001,0.005232,0.004401100000000001
2021-04-07,16:25:07.207000,-0.013984,-0.00029562,0.0069845,0.0052341,0.0044004
2021-04-07,16:25:07.209000,-0.014247999999999999,-0.00031128,0.0071755,0.005311199999999999,0.0044638
2021-04-07,16:25:07.211000,-0.014603999999999999,-0.00031244,0.007364699999999999,0.0054462,0.0045981
2021-04-07,16:25:07.213000,-0.015144999999999999,-0.00032121,0.0075792,0.005663399999999999,0.0047886000000000005
2021-04-07,16:25:07.215000,-0.015795,-0.00033653,0.0077658,0.0058542,0.0049832999999999995
2021-04-07,16:25:07.217000,-0.016222,-0.00034494,0.0079083,0.0059747,0.0051099
2021-04-07,16:25:07.219000,-0.016443,-0.00035594,0.008043000000000002,0.0060784,0.0051674
2021-04-07,16:25:07.221000,-0.016495,-0.00037402,0.008132200000000001,0.006097999999999999,0.0051661
2021-04-07,16:25:07.223000,-0.016353,-0.00039411,0.008195299999999999,0.0060478,0.0051161
2021-04-07,16:25:07.225000,-0.016228,-0.00040059,0.008276299999999999,0.0060222,0.0050958
2021-04-07,16:25:07.227000,-0.016311000000000003,-0.00040598,0.0083914,0.006039899999999999,0.0051247
2021-04-07,16:25:07.229000,-0.016600999999999998,-0.00040781,0.0085303,0.0061614,0.005227300000000001
2021-04-07,16:25:07.231000,-0.017100999999999998,-0.00038099,0.008695200000000002,0.0063637,0.005417
2021-04-07,16:25:07.233000,-0.017793,-0.00037134,0.008910799999999998,0.0065527,0.0056067
2021-04-07,16:25:07.235000,-0.018478,-0.00039421,0.0091152,0.0067696,0.005788399999999999
2021-04-07,16:25:07.237000,-0.018952,-0.00038953,0.0092752,0.0069657,0.0059548000000000005
2021-04-07,16:25:07.239000,-0.019183000000000002,-0.0003719,0.009409,0.0070304,0.0060441
2021-04-07,16:25:07.241000,-0.019190000000000002,-0.00036825,0.009504899999999998,0.0070285,0.0060566000000000005
2021-04-07,16:25:07.243000,-0.019062,-0.00036038,0.0095946,0.007004300000000001,0.006012399999999999
2021-04-07,16:25:07.245000,-0.018937,-0.00037079,0.0096935,0.006959999999999999,0.0059707
2021-04-07,16:25:07.247000,-0.018976,-0.00039311,0.0098064,0.0069747,0.005996199999999999
2021-04-07,16:25:07.249000,-0.019331,-0.00040279,0.0099844,0.007095399999999999,0.0060963
2021-04-07,16:25:07.251000,-0.019913,-0.00041849,0.010225,0.0072959999999999995,0.006258
2021-04-07,16:25:07.253000,-0.020618,-0.00042695,0.010478,0.007539,0.006481499999999999
2021-04-07,16:25:07.255000,-0.02137,-0.00042464,0.010707,0.0077851,0.0067305
2021-04-07,16:25:07.257000,-0.021871,-0.00042934,0.010911,0.0079588,0.0068977000000000005
2021-04-07,16:25:07.259000,-0.022047,-0.00042438,0.011089,0.008023,0.0069652
2021-04-07,16:25:07.261000,-0.022047999999999998,-0.00040965,0.011223,0.0080219,0.006973399999999999
2021-04-07,16:25:07.263000,-0.021884,-0.00039484,0.011343,0.007968600000000001,0.0069077
2021-04-07,16:25:07.265000,-0.021664,-0.00039135,0.011470000000000001,0.0078985,0.0068436999999999994
2021-04-07,16:25:07.267000,-0.021700999999999998,-0.00039888,0.01165,0.0079204,0.006862999999999999
2021-04-07,16:25:07.269000,-0.022068,-0.00038341,0.011903,0.0080375,0.0069513000000000005
2021-04-07,16:25:07.271000,-0.02253,-0.00036253,0.012185,0.008206999999999999,0.0071381
2021-04-07,16:25:07.273000,-0.023155000000000002,-0.00035825,0.012485,0.0084405,0.0073926999999999994
2021-04-07,16:25:07.275000,-0.023871,-0.00034506,0.01273,0.008663200000000001,0.007597700000000001
2021-04-07,16:25:07.277000,-0.024263,-0.00034214,0.012912999999999999,0.0087898,0.0077188000000000005
2021-04-07,16:25:07.279000,-0.024367,-0.00035248,0.013083000000000001,0.0088241,0.0077446
2021-04-07,16:25:07.281000,-0.024249,-0.00034537,0.013184999999999999,0.0087709,0.007673999999999999
2021-04-07,16:25:07.283000,-0.023885,-0.00033995,0.01325,0.008658299999999999,0.00755
2021-04-07,16:25:07.285000,-0.023562,-0.00033513,0.013322,0.0085544,0.0074204
2021-04-07,16:25:07.287000,-0.02343,-0.00032006,0.013408000000000002,0.0085089,0.0073595
2021-04-07,16:25:07.289000,-0.023546,-0.00031548,0.013555000000000001,0.008561299999999999,0.0074118
2021-04-07,16:25:07.291000,-0.023927,-0.00030901,0.013728,0.0086934,0.0075363
2021-04-07,16:25:07.293000,-0.02436,-0.00028994,0.013874000000000001,0.0088275,0.0076779
2021-04-07,16:25:07.295000,-0.024733,-0.00027856,0.014009,0.00896,0.0078245
2021-04-07,16:25:07.297000,-0.024958,-0.00028437,0.014103000000000001,0.009042200000000002,0.007899
2021-04-07,16:25:07.299000,-0.024775,-0.00028455,0.014103999999999998,0.0089712,0.007805599999999999
2021-04-07,16:25:07.301000,-0.024265000000000002,-0.00026684,0.014051,0.0088078,0.007627600000000001
2021-04-07,16:25:07.303000,-0.023704,-0.00025872,0.013969,0.008594899999999999,0.0074172
2021-04-07,16:25:07.305000,-0.023072,-0.0002556,0.013878,0.0083502,0.0071643
2021-04-07,16:25:07.307000,-0.022509,-0.0002428,0.013828,0.008190300000000001,0.0070058
2021-04-07,16:25:07.309000,-0.022254,-0.0002364,0.013821,0.008126600000000001,0.006964399999999999
2021-04-07,16:25:07.311000,-0.022222,-0.00024060000000000002,0.013831999999999999,0.0080978,0.0069225
2021-04-07,16:25:07.313000,-0.02224,-0.00024291,0.013848,0.008092799999999999,0.006909
2021-04-07,16:25:07.315000,-0.022227,-0.00023056,0.013863999999999998,0.0081007,0.006906999999999999
2021-04-07,16:25:07.317000,-0.022029,-0.00021498,0.013808,0.007998100000000001,0.0067937
2021-04-07,16:25:07.319000,-0.021431,-0.00020377,0.013656999999999999,0.0077443,0.0065905
2021-04-07,16:25:07.321000,-0.020524,-0.0001984,0.013503999999999999,0.0074827,0.0062811
2021-04-07,16:25:07.323000,-0.019448,-0.00021102,0.013315,0.0071597,0.0058763
2021-04-07,16:25:07.325000,-0.018308,-0.00022200000000000003,0.013094,0.0067515,0.0055395
2021-04-07,16:25:07.327000,-0.01738,-0.00022061,0.012931,0.0064391000000000006,0.0052575
2021-04-07,16:25:07.329000,-0.016738999999999997,-0.00021903,0.012806,0.0062115,0.0050059
2021-04-07,16:25:07.331000,-0.016305,-0.00021021,0.012701,0.0060271000000000005,0.0048426
2021-04-07,16:25:07.333000,-0.015974000000000002,-0.00018717,0.012618,0.0059167,0.0047455
2021-04-07,16:25:07.335000,-0.015568,-0.00016111,0.012536,0.0057677,0.0046119
2021-04-07,16:25:07.337000,-0.014865999999999999,-0.00014441,0.012391,0.0055191,0.0043508
2021-04-07,16:25:07.339000,-0.013872,-0.00012344,0.012149,0.005218199999999999,0.0040425
2021-04-07,16:25:07.341000,-0.012633,-9.9483e-05,0.011874,0.0048255,0.0036580999999999996
2021-04-07,16:25:07.343000,-0.011133,-7.9101e-05,0.01158,0.0043348,0.0031503
2021-04-07,16:25:07.345000,-0.0097867,-4.2495e-05,0.011274,0.0038423000000000003,0.0026631999999999997
2021-04-07,16:25:07.347000,-0.0086811,-1.6088e-05,0.011042,0.00344,0.0022523000000000005
2021-04-07,16:25:07.349000,-0.0075794,-2.1988e-06,0.010872,0.0031133000000000003,0.0019192999999999999
2021-04-07,16:25:07.351000,-0.006752500000000001,2.7873000000000002e-05,0.010716,0.0028344,0.0016582
2021-04-07,16:25:07.353000,-0.006140100000000001,3.6713e-05,0.010598999999999999,0.0026384,0.0014535
2021-04-07,16:25:07.355000,-0.0053718,4.2328e-05,0.010463,0.0024241999999999996,0.001236
2021-04-07,16:25:07.357000,-0.0044992,6.9265e-05,0.010259,0.002101,0.00088547
2021-04-07,16:25:07.359000,-0.0032670999999999998,7.818e-05,0.010006000000000001,0.0016683,0.00043509
2021-04-07,16:25:07.361000,-0.0016427,9.4337e-05,0.0097308,0.001167,-5.3435e-05
2021-04-07,16:25:07.363000,-0.00020781,0.00011206,0.009457799999999999,0.00063461,-0.0005993
2021-04-07,16:25:07.365000,0.0013385,0.00010544,0.009182,3.654e-05,-0.0011616
2021-04-07,16:25:07.367000,0.0030199000000000003,0.00011628,0.008986399999999999,-0.00044747,-0.0016749000000000002
2021-04-07,16:25:07.369000,0.0043557,0.00013335,0.008859899999999999,-0.00082812,-0.0021548
2021-04-07,16:25:07.371000,0.005818,0.00014947,0.0086896,-0.0013557,-0.0026304
2021-04-07,16:25:07.373000,0.007204,0.00018111,0.0085609,-0.0018105,-0.003023
2021-04-07,16:25:07.375000,0.007919800000000001,0.00020233,0.0085391,-0.0020338,-0.0032424999999999997
2021-04-07,16:25:07.377000,0.008380799999999999,0.00022501,0.0085392,-0.0022419000000000002,-0.0034052
2021-04-07,16:25:07.379000,0.009012899999999999,0.00023909,0.0085105,-0.0024809999999999997,-0.0036282
2021-04-07,16:25:07.381000,0.009812000000000001,0.00022119,0.0084766,-0.0027448,-0.0038898
2021-04-07,16:25:07.383000,0.010667,0.00021785,0.0084351,-0.0030482,-0.0042004
2021-04-07,16:25:07.385000,0.011507,0.000225,0.0083806,-0.0032898000000000003,-0.0044818
2021-04-07,16:25:07.387000,0.012185,0.00021939,0.0083763,-0.0034743,-0.0046732
2021-04-07,16:25:07.389000,0.012622,0.0002268,0.008419,-0.0036224000000000004,-0.004820399999999999
2021-04-07,16:25:07.391000,0.012846999999999999,0.00023362,0.0084842,-0.0036713,-0.0048842
2021-04-07,16:25:07.393000,0.012847999999999998,0.00023874,0.0085591,-0.0036686999999999996,-0.0048658
2021-04-07,16:25:07.395000,0.012831,0.00025431,0.008592200000000001,-0.0036951,-0.0048705
2021-04-07,16:25:07.397000,0.013025,0.00023808,0.0085941,-0.0037633000000000002,-0.00494
2021-04-07,16:25:07.399000,0.013413999999999999,0.00021226,0.008552500000000001,-0.0038693000000000004,-0.0050348
2021-04-07,16:25:07.401000,0.013924,0.00022882,0.008454099999999999,-0.0040390999999999995,-0.0051769
2021-04-07,16:25:07.403000,0.014497999999999999,0.00024481,0.0083375,-0.004239,-0.0053718
2021-04-07,16:25:07.405000,0.015024000000000001,0.00025227,0.0082057,-0.0043905,-0.005531800000000001
2021-04-07,16:25:07.407000,0.015343,0.00027485,0.008087,-0.0045011,-0.00562
2021-04-07,16:25:07.409000,0.01542,0.00027836,0.007980500000000001,-0.0045312,-0.0056339
2021-04-07,16:25:07.411000,0.015328,0.00027846,0.0078771,-0.0044806,-0.0055979
2021-04-07,16:25:07.413000,0.015136000000000002,0.0002985,0.007784699999999999,-0.004443,-0.0055453
2021-04-07,16:25:07.415000,0.014979,0.00030078,0.007644199999999999,-0.004402399999999999,-0.0054938
2021-04-07,16:25:07.417000,0.014961000000000002,0.00029232,0.0074165,-0.004389199999999999,-0.0055131
2021-04-07,16:25:07.419000,0.015222999999999999,0.00028877,0.007108,-0.0044913,-0.0056533
2021-04-07,16:25:07.421000,0.015740999999999998,0.00028147,0.006747399999999999,-0.004657100000000001,-0.0058555
2021-04-07,16:25:07.423000,0.016243,0.00030041,0.0063305,-0.004857,-0.0060368
2021-04-07,16:25:07.425000,0.016794,0.00032574,0.0058819,-0.0050874,-0.006227300000000001
2021-04-07,16:25:07.427000,0.017327000000000002,0.00032935,0.0054065,-0.0052450000000000005,-0.0063927
2021-04-07,16:25:07.429000,0.017544,0.00035031,0.0048850000000000005,-0.0053211000000000005,-0.0064265
2021-04-07,16:25:07.431000,0.017566,0.00038334,0.0044051,-0.0053701999999999995,-0.0064018
2021-04-07,16:25:07.433000,0.017442,0.00043372,0.0038957,-0.005342,-0.0062976
2021-04-07,16:25:07.435000,0.017190999999999998,0.00049512,0.0032463,-0.0052756999999999995,-0.0060738
2021-04-07,16:25:07.437000,0.017057,0.00051256,0.0023886,-0.0052834,-0.0059469
2021-04-07,16:25:07.439000,0.017108,0.00051496,0.0013507999999999999,-0.0053403,-0.0059588
2021-04-07,16:25:07.441000,0.017271,0.00052262,0.00029916,-0.0054382,-0.006018899999999999
2021-04-07,16:25:07.443000,0.017526,0.00052447,-0.00096996,-0.0056073,-0.006137699999999999
2021-04-07,16:25:07.445000,0.017828,0.00053431,-0.0023973,-0.0057595,-0.0062222
2021-04-07,16:25:07.447000,0.017953999999999998,0.00054455,-0.0034758000000000002,-0.0058448,-0.0062153
2021-04-07,16:25:07.449000,0.017823,0.0005621000000000001,-0.0041441,-0.005892100000000001,-0.0061559
2021-04-07,16:25:07.451000,0.01762,0.00057403,-0.0045172,-0.0058927,-0.0060345
2021-04-07,16:25:07.453000,0.017313,0.00056889,-0.0047262,-0.0058667,-0.0058749
2021-04-07,16:25:07.455000,0.016954,0.00056886,-0.0050621,-0.0058722,-0.0057461000000000005
2021-04-07,16:25:07.457000,0.016842,0.00056388,-0.0055332,-0.0059213,-0.0056911999999999996
2021-04-07,16:25:07.459000,0.016993,0.00055645,-0.005845,-0.006021100000000001,-0.0057205
2021-04-07,16:25:07.461000,0.017273,0.00054479,-0.005989899999999999,-0.0061961,-0.0058013000000000006
2021-04-07,16:25:07.463000,0.017628,0.000513,-0.0062356,-0.0063901,-0.0058956
2021-04-07,16:25:07.465000,0.017996,0.00049144,-0.0064926,-0.0065709,-0.0060014
2021-04-07,16:25:07.467000,0.018244,0.00047514,-0.0066631,-0.0067389,-0.0060715000000000005
2021-04-07,16:25:07.469000,0.018255,0.00045198,-0.007013200000000001,-0.0067988,-0.0060539999999999995
2021-04-07,16:25:07.471000,0.018063,0.00044740000000000003,-0.0073905,-0.0067506,-0.0059773000000000005
2021-04-07,16:25:07.473000,0.017740000000000002,0.00043210000000000004,-0.0074536,-0.006675199999999999,-0.0058465
2021-04-07,16:25:07.475000,0.017374,0.00040597,-0.007384999999999999,-0.006582899999999999,-0.0056952
2021-04-07,16:25:07.477000,0.017113999999999997,0.0004052,-0.0073818,-0.006508,-0.0056023
2021-04-07,16:25:07.479000,0.017034999999999998,0.00040621,-0.0073991,-0.0064965000000000005,-0.0055598999999999996
2021-04-07,16:25:07.481000,0.017103999999999998,0.00039367,-0.0073788,-0.006520300000000001,-0.0055372
2021-04-07,16:25:07.483000,0.017209000000000002,0.00038046,-0.0073444,-0.0065459,-0.0055404
2021-04-07,16:25:07.485000,0.017318,0.00038059,-0.007331100000000001,-0.0065839,-0.0055613
2021-04-07,16:25:07.487000,0.017315999999999998,0.00037805,-0.0072851,-0.0065485,-0.0055292
2021-04-07,16:25:07.489000,0.017012,0.00035061,-0.007219499999999999,-0.0064057,-0.005411699999999999
2021-04-07,16:25:07.491000,0.016512,0.00031460000000000006,-0.0071087,-0.0062455,-0.0052588999999999995
2021-04-07,16:25:07.493000,0.015872999999999998,0.00029589,-0.0069573000000000005,-0.006014899999999999,-0.0050428999999999995
2021-04-07,16:25:07.495000,0.015118000000000001,0.00031522,-0.0068373999999999996,-0.005723,-0.0047655
2021-04-07,16:25:07.497000,0.014488,0.00033443,-0.006640999999999999,-0.0054843999999999995,-0.004536600000000001
2021-04-07,16:25:07.499000,0.014077000000000001,0.00034072,-0.006491599999999999,-0.005314,-0.0043735
2021-04-07,16:25:07.501000,0.013815000000000001,0.00036083,-0.0064488,-0.005210800000000001,-0.0042356
2021-04-07,16:25:07.503000,0.013675,0.00035619,-0.006254600000000001,-0.0051521,-0.0041481
2021-04-07,16:25:07.505000,0.013569,0.00034518,-0.0061064,-0.0051254,-0.0041015
2021-04-07,16:25:07.507000,0.01329,0.00034585,-0.0060628,-0.0050518,-0.004024
2021-04-07,16:25:07.509000,0.012842,0.00033654,-0.0058736000000000005,-0.004838,-0.0038935000000000003
2021-04-07,16:25:07.511000,0.012276,0.00035287,-0.0056933,-0.004555399999999999,-0.0037031
2021-04-07,16:25:07.513000,0.011549,0.00037876,-0.0055918,-0.0042632,-0.0034643
2021-04-07,16:25:07.515000,0.010912,0.00039094,-0.005520000000000001,-0.0040139,-0.0032349
2021-04-07,16:25:07.517000,0.010431000000000001,0.00040852,-0.0054467,-0.0038303000000000005,-0.0030350999999999998
2021-04-07,16:25:07.519000,0.010023,0.00043044,-0.0053823000000000005,-0.0036773000000000005,-0.0029026
2021-04-07,16:25:07.521000,0.0098245,0.00045269,-0.0053771,-0.0036323999999999996,-0.0028655
2021-04-07,16:25:07.523000,0.0097807,0.00046815,-0.0052304,-0.0036555999999999997,-0.0028558000000000004
2021-04-07,16:25:07.525000,0.009712,0.00048998,-0.005164,-0.0036551,-0.0028454
2021-04-07,16:25:07.527000,0.009512200000000002,0.00051046,-0.0053161,-0.003628,-0.0028128
2021-04-07,16:25:07.529000,0.0091651,0.00050989,-0.0051915,-0.0034599000000000006,-0.0026807
2021-04-07,16:25:07.531000,0.008633499999999999,0.00053276,-0.0049244,-0.0032239000000000005,-0.0024931
2021-04-07,16:25:07.533000,0.0079256,0.0005882000000000001,-0.0047967,-0.0030428,-0.0022611000000000003
2021-04-07,16:25:07.535000,0.0072172,0.00061901,-0.0046286,-0.0027784000000000003,-0.0019466999999999998
2021-04-07,16:25:07.537000,0.0066185,0.00063115,-0.0044744,-0.0025066,-0.0017019000000000001
2021-04-07,16:25:07.539000,0.0062144,0.00066132,-0.004372399999999999,-0.0024059000000000003,-0.0015834000000000002
2021-04-07,16:25:07.541000,0.0060045,0.00067682,-0.0042721,-0.0023793000000000004,-0.0015067
2021-04-07,16:25:07.543000,0.0058942,0.00066983,-0.004197600000000001,-0.002349,-0.0014717
2021-04-07,16:25:07.545000,0.0058295000000000005,0.00066439,-0.004118500000000001,-0.0023594,-0.0014625999999999999
2021-04-07,16:25:07.547000,0.0056784,0.00064874,-0.0040597,-0.0023125,-0.0013985999999999998
2021-04-07,16:25:07.549000,0.0053462,0.00065215,-0.004000699999999999,-0.0021384,-0.0012527999999999999
2021-04-07,16:25:07.551000,0.0048909999999999995,0.00068036,-0.0039192,-0.0019829,-0.0011080999999999999
2021-04-07,16:25:07.553000,0.0043533,0.00069548,-0.0038787,-0.0018712,-0.00093958
2021-04-07,16:25:07.555000,0.0037757,0.00070928,-0.0038577,-0.0017574,-0.00071352
2021-04-07,16:25:07.557000,0.0033574,0.00069807,-0.0038453000000000003,-0.0016682,-0.00057253
2021-04-07,16:25:07.559000,0.0031712,0.00066461,-0.0038719,-0.0016279,-0.00052821
2021-04-07,16:25:07.561000,0.0031004,0.00067849,-0.0039226,-0.0017005,-0.00050273
2021-04-07,16:25:07.563000,0.0031778,0.00068819,-0.0039932,-0.0017844999999999998,-0.00051741
2021-04-07,16:25:07.565000,0.0033558,0.00066224,-0.0040838,-0.0017996,-0.0005599
2021-04-07,16:25:07.567000,0.0034176000000000002,0.00067331,-0.004162300000000001,-0.0018579999999999998,-0.00056423
2021-04-07,16:25:07.569000,0.0033281999999999995,0.00068517,-0.0042285,-0.0019158,-0.00051495
2021-04-07,16:25:07.571000,0.003109,0.00067757,-0.0043211000000000005,-0.0018988,-0.00043671
2021-04-07,16:25:07.573000,0.0027763,0.00069014,-0.004403600000000001,-0.0018528,-0.00033181
2021-04-07,16:25:07.575000,0.0025004000000000003,0.00069417,-0.004492899999999999,-0.0018172999999999998,-0.00023605
2021-04-07,16:25:07.577000,0.0023533,0.00069153,-0.0046211,-0.0018123000000000002,-0.00019145
2021-04-07,16:25:07.579000,0.0023371999999999998,0.00068459,-0.0047277000000000005,-0.0018445,-0.00022119
2021-04-07,16:25:07.581000,0.0025425,0.0006615,-0.0048521,-0.001953,-0.00032077
2021-04-07,16:25:07.583000,0.0028867,0.00064675,-0.0049957000000000005,-0.002135,-0.00041877
2021-04-07,16:25:07.585000,0.0032256,0.00063735,-0.0051338,-0.0023061999999999996,-0.00052854
2021-04-07,16:25:07.587000,0.0034952,0.00063588,-0.0052407,-0.0024297,-0.000641
2021-04-07,16:25:07.589000,0.0035945,0.0006432,-0.0053189,-0.0025123000000000003,-0.00065096
2021-04-07,16:25:07.591000,0.0035116,0.00063861,-0.005448399999999999,-0.0025421,-0.00059985
2021-04-07,16:25:07.593000,0.003326,0.00063547,-0.0055062,-0.0025274,-0.00053473
2021-04-07,16:25:07.595000,0.0031029,0.00063792,-0.0056137,-0.0025001999999999997,-0.00045074
2021-04-07,16:25:07.597000,0.0029458,0.00063429,-0.0058816,-0.0024855,-0.00041284
2021-04-07,16:25:07.599000,0.0029653,0.00062412,-0.0060187,-0.0025434999999999998,-0.00041505
2021-04-07,16:25:07.601000,0.0031175,0.00059464,-0.0060959,-0.0026593000000000003,-0.00044741
2021-04-07,16:25:07.603000,0.003288,0.0005639999999999999,-0.0061711000000000005,-0.0027433,-0.00053732
2021-04-07,16:25:07.605000,0.0034881,0.00054657,-0.0061369,-0.0028035,-0.00062921
2021-04-07,16:25:07.607000,0.0036455,0.00052555,-0.0060967,-0.0028019000000000004,-0.00066348
2021-04-07,16:25:07.609000,0.0035935000000000003,0.00052129,-0.0060201000000000005,-0.002727,-0.00063648
2021-04-07,16:25:07.611000,0.0033948999999999997,0.00052667,-0.0059121,-0.00268,-0.00058106
2021-04-07,16:25:07.613000,0.0031487,0.00051913,-0.005836699999999999,-0.0026046,-0.00050289
2021-04-07,16:25:07.615000,0.00285,0.00050651,-0.0057323999999999995,-0.0024784000000000004,-0.00039987
2021-04-07,16:25:07.617000,0.0026854,0.00048823,-0.0056067,-0.0024185,-0.00034019
2021-04-07,16:25:07.619000,0.0027643,0.00048355,-0.005506100000000001,-0.0024139,-0.00035725
2021-04-07,16:25:07.621000,0.0029264,0.00047522,-0.0053823000000000005,-0.0024398,-0.00044085
2021-04-07,16:25:07.623000,0.0032025,0.00044563,-0.005244100000000001,-0.0025149,-0.00056575
2021-04-07,16:25:07.625000,0.0035753,0.00042625,-0.0051382,-0.0025756999999999998,-0.00066316
2021-04-07,16:25:07.627000,0.0037952,0.00041628,-0.004967,-0.0025905999999999998,-0.00071893
2021-04-07,16:25:07.629000,0.0038417,0.00041877,-0.0047291,-0.0025846,-0.00074786
2021-04-07,16:25:07.631000,0.0037229,0.00041563,-0.0044884999999999994,-0.0025126,-0.00072872
2021-04-07,16:25:07.633000,0.0034381999999999998,0.00039228,-0.0042332,-0.0023696,-0.00065622
2021-04-07,16:25:07.635000,0.0031941,0.00038338,-0.0039786000000000005,-0.0022511999999999996,-0.00056447
2021-04-07,16:25:07.637000,0.0030712,0.00037657,-0.0037275,-0.0021858,-0.00051061
2021-04-07,16:25:07.639000,0.0030659000000000003,0.00035957,-0.003529,-0.0021651,-0.00053372
2021-04-07,16:25:07.641000,0.0032405000000000003,0.00033477,-0.0033354,-0.0022079,-0.00061738
2021-04-07,16:25:07.643000,0.0035373000000000006,0.00029673,-0.0030927,-0.0022858,-0.00071244
2021-04-07,16:25:07.645000,0.0038155999999999997,0.00026649,-0.0028742,-0.0023691,-0.00081852
2021-04-07,16:25:07.647000,0.0039771,0.00023483,-0.0026620999999999997,-0.0024247,-0.00091394
2021-04-07,16:25:07.649000,0.0039824,0.00020202,-0.0024833000000000004,-0.0024027,-0.00091798
2021-04-07,16:25:07.651000,0.0038144,0.00019266,-0.0023396000000000003,-0.002325,-0.00086093
2021-04-07,16:25:07.653000,0.0035211999999999995,0.0001798,-0.0021855999999999998,-0.0022206,-0.0008021
2021-04-07,16:25:07.655000,0.0032246,0.00015443,-0.0020655,-0.0020987,-0.00072053
2021-04-07,16:25:07.657000,0.003019,0.00014215,-0.0019590999999999996,-0.0020215,-0.00066589
2021-04-07,16:25:07.659000,0.00301,0.00012731,-0.0019035,-0.0020101,-0.00068902
2021-04-07,16:25:07.661000,0.0031809,0.00010609,-0.0019479,-0.0020137,-0.00073479
2021-04-07,16:25:07.663000,0.0033780999999999998,9.3552e-05,-0.0020285999999999998,-0.0020366,-0.00080133
2021-04-07,16:25:07.665000,0.0036001999999999996,7.4667e-05,-0.0021233,-0.0020962,-0.00089751
2021-04-07,16:25:07.667000,0.0037766999999999996,6.474e-05,-0.0022164000000000003,-0.0021083,-0.00095246
2021-04-07,16:25:07.669000,0.0037198,6.5409e-05,-0.0022917,-0.0020499000000000003,-0.00095447
2021-04-07,16:25:07.671000,0.0034873000000000005,4.0156999999999995e-05,-0.0023533,-0.001979,-0.00089195
2021-04-07,16:25:07.673000,0.0031883000000000002,1.229e-05,-0.0023868,-0.0018563,-0.00076008
2021-04-07,16:25:07.675000,0.0028469999999999997,4.7172e-06,-0.0024105999999999997,-0.0017116,-0.00065927
2021-04-07,16:25:07.677000,0.0026219999999999998,1.2422e-05,-0.0024511999999999997,-0.0016179000000000002,-0.00060618
2021-04-07,16:25:07.679000,0.0026076,2.863e-05,-0.0024901999999999997,-0.0015555,-0.00057793
2021-04-07,16:25:07.681000,0.0026808000000000005,2.0407e-05,-0.0025101999999999998,-0.001556,-0.00063265
2021-04-07,16:25:07.683000,0.0028497,-5.9316e-06,-0.0025147,-0.0016067999999999998,-0.00073764
2021-04-07,16:25:07.685000,0.0030954999999999997,-2.0933e-05,-0.0024999,-0.0016331,-0.00081724
2021-04-07,16:25:07.687000,0.0031908,-2.575e-05,-0.002472,-0.0016329,-0.00086495
2021-04-07,16:25:07.689000,0.003117,-2.2868000000000002e-05,-0.0024362,-0.0015982000000000001,-0.00084368
2021-04-07,16:25:07.691000,0.0028738,-1.18e-05,-0.0023866,-0.0014939,-0.00073454
2021-04-07,16:25:07.693000,0.0024833999999999998,-1.4998e-08,-0.0023206,-0.0013353,-0.00059632
2021-04-07,16:25:07.695000,0.0021668000000000004,-1.8159e-06,-0.0022415,-0.0011877,-0.0004617
2021-04-07,16:25:07.697000,0.0019304000000000003,-7.3351e-07,-0.0021801999999999998,-0.0010835,-0.00035521
2021-04-07,16:25:07.699000,0.0018169,1.9052e-05,-0.0021241,-0.0010284,-0.0003158
2021-04-07,16:25:07.701000,0.0019090999999999997,2.4545e-05,-0.0020556,-0.0010318,-0.00034655
2021-04-07,16:25:07.703000,0.002054,1.9848e-05,-0.0020045,-0.0010579,-0.0004213
2021-04-07,16:25:07.705000,0.0021721999999999996,3.3855e-05,-0.0019297000000000001,-0.0010756,-0.00049621
2021-04-07,16:25:07.707000,0.0022069000000000004,4.1635e-05,-0.0018267,-0.0010632,-0.00052392
2021-04-07,16:25:07.709000,0.0020831,3.7794e-05,-0.0017152,-0.00098021,-0.00045137
2021-04-07,16:25:07.711000,0.0017686,5.3769e-05,-0.0015698,-0.00084216,-0.00030329
2021-04-07,16:25:07.713000,0.0013186,8.0214e-05,-0.0014419,-0.00067499,-0.00015574
2021-04-07,16:25:07.715000,0.00087947,9.0177e-05,-0.0013347,-0.00050611,-7.68e-06
2021-04-07,16:25:07.717000,0.00051425,9.463700000000001e-05,-0.0012155999999999998,-0.00039146,0.00010697
2021-04-07,16:25:07.719000,0.00033224,0.00011020000000000001,-0.0011078,-0.00032614,0.00015454
2021-04-07,16:25:07.721000,0.00035244,0.00012407,-0.0010074,-0.00029905,0.00017145
2021-04-07,16:25:07.723000,0.00041555,0.00013102,-0.00092049,-0.00031142,0.00014341
2021-04-07,16:25:07.725000,0.00048736,0.00013151,-0.00084664,-0.00032202,8.4965e-05
2021-04-07,16:25:07.727000,0.00049217,0.00012352,-0.00076048,-0.00028569999999999995,7.6297e-05
2021-04-07,16:25:07.729000,0.00028759,0.00012846,-0.00065846,-0.00018162,0.00015272
2021-04-07,16:25:07.731000,-6.5716e-05,0.00014473,-0.00056888,-5.3581e-05,0.00027811
2021-04-07,16:25:07.733000,-0.00048568,0.00015736,-0.00049969,9.453100000000001e-05,0.00040777
2021-04-07,16:25:07.735000,-0.00093681,0.00017226,-0.0004315,0.00028313,0.00054944
2021-04-07,16:25:07.737000,-0.0012565,0.00018056,-0.0003982,0.00041457,0.00067958
2021-04-07,16:25:07.739000,-0.0013609000000000002,0.00018561,-0.0004025,0.0004521,0.00073831
2021-04-07,16:25:07.741000,-0.0013388,0.00019298,-0.00040601,0.00045475,0.00071835
2021-04-07,16:25:07.743000,-0.0012190999999999999,0.00018665,-0.00041394,0.00043537,0.00065171
2021-04-07,16:25:07.745000,-0.0010630000000000001,0.00018299,-0.00042261,0.00041766,0.00060329
2021-04-07,16:25:07.747000,-0.0010218,0.00018958,-0.00042234,0.00042622,0.00059548
2021-04-07,16:25:07.749000,-0.0011349,0.00018376,-0.00040839999999999995,0.00047331,0.00061612
2021-04-07,16:25:07.751000,-0.0014172,0.00018398,-0.00039431,0.0005904,0.00070154
2021-04-07,16:25:07.753000,-0.0018172999999999998,0.00019423,-0.00038436,0.00074237,0.00082505
2021-04-07,16:25:07.755000,-0.0021436,0.00020242,-0.00037405,0.00087427,0.00094973
2021-04-07,16:25:07.757000,-0.0023511,0.00022839,-0.00039651,0.0009741,0.0010561
2021-04-07,16:25:07.759000,-0.0024404,0.00024359999999999999,-0.00041144,0.0010031,0.0010628
2021-04-07,16:25:07.761000,-0.0023309,0.00024234,-0.00041909,0.00096252,0.00099878
2021-04-07,16:25:07.763000,-0.0021024,0.00024059,-0.00047117,0.00089754,0.00092137
2021-04-07,16:25:07.765000,-0.0019198,0.00021043,-0.00047955,0.00083272,0.0008304
2021-04-07,16:25:07.767000,-0.0018276,0.00018998,-0.00044654,0.00080896,0.00079554
2021-04-07,16:25:07.769000,-0.0018598,0.00017182,-0.0004485,0.0008362,0.00081799
2021-04-07,16:25:07.771000,-0.0020868,0.00013464,-0.00043526,0.00089703,0.00087057
2021-04-07,16:25:07.773000,-0.002405,0.00013024,-0.00039947,0.00099232,0.00097715
2021-04-07,16:25:07.775000,-0.0026777,0.0001135,-0.00038510000000000004,0.0010907,0.0010807
2021-04-07,16:25:07.777000,-0.0028633000000000005,7.5644e-05,-0.00038682,0.0011532,0.0011256999999999999
2021-04-07,16:25:07.779000,-0.0028596999999999997,4.6711999999999996e-05,-0.00039183,0.0011592,0.0011136
2021-04-07,16:25:07.781000,-0.0026815000000000003,-5.1503e-06,-0.00041125,0.0010987,0.0010524
2021-04-07,16:25:07.783000,-0.0024193,-5.549e-05,-0.00044686,0.0010107999999999998,0.00095524
2021-04-07,16:25:07.785000,-0.0021358,-0.00010113,-0.00047435,0.00093529,0.00084381
2021-04-07,16:25:07.787000,-0.0019850000000000002,-0.00014511,-0.00048839,0.00089262,0.00076282
2021-04-07,16:25:07.789000,-0.0020242999999999997,-0.00017805,-0.00048872,0.00090857,0.00073205
2021-04-07,16:25:07.791000,-0.0021954,-0.00022395,-0.00047979,0.00096572,0.00076572
2021-04-07,16:25:07.793000,-0.002445,-0.00025547,-0.00049585,0.0010534000000000001,0.00086642
2021-04-07,16:25:07.795000,-0.0026973,-0.00027216,-0.00053468,0.0011517,0.00094153
2021-04-07,16:25:07.797000,-0.0028225000000000004,-0.0003061,-0.00055544,0.0011924000000000001,0.00094414
2021-04-07,16:25:07.799000,-0.0027449,-0.00034078,-0.00056339,0.0011743,0.00090607
2021-04-07,16:25:07.801000,-0.0025497,-0.00037260000000000006,-0.00059275,0.001103,0.00079845
2021-04-07,16:25:07.803000,-0.0022541,-0.00040671,-0.00062762,0.00098217,0.0006442
2021-04-07,16:25:07.805000,-0.0019094000000000001,-0.00044067,-0.0006358,0.00088998,0.00051767
2021-04-07,16:25:07.807000,-0.0017017,-0.00047193,-0.000634,0.00084,0.00041518
2021-04-07,16:25:07.809000,-0.0016481999999999998,-0.00047611,-0.00063132,0.00081823,0.00036698
2021-04-07,16:25:07.811000,-0.0017486000000000001,-0.00046696,-0.00061398,0.00086307,0.00040705
2021-04-07,16:25:07.813000,-0.0019848,-0.00048152,-0.00059148,0.00094128,0.00048051
2021-04-07,16:25:07.815000,-0.0021688000000000002,-0.00049175,-0.00056571,0.0010006,0.00055629
2021-04-07,16:25:07.817000,-0.0022342,-0.00048917,-0.00054619,0.0010425,0.00059902
2021-04-07,16:25:07.819000,-0.0021745000000000002,-0.00050115,-0.00055289,0.0010301,0.0005487000000000001
2021-04-07,16:25:07.821000,-0.0019117000000000001,-0.00050699,-0.00056108,0.00094672,0.00043697
2021-04-07,16:25:07.823000,-0.0015414,-0.0005053999999999999,-0.00054985,0.00084837,0.00032794
2021-04-07,16:25:07.825000,-0.0012273,-0.0005216,-0.00053058,0.00075364,0.00022049
2021-04-07,16:25:07.827000,-0.00099549,-0.00053914,-0.00050493,0.00068015,0.00011681
2021-04-07,16:25:07.829000,-0.00093305,-0.00053713,-0.00047033,0.00067179,7.326e-05
2021-04-07,16:25:07.831000,-0.0010917,-0.00053756,-0.00042832,0.00072547,0.00011269
2021-04-07,16:25:07.833000,-0.0012948,-0.00055242,-0.00038079,0.00081239,0.00019526
2021-04-07,16:25:07.835000,-0.0014643,-0.00054802,-0.00034626,0.00088713,0.00027573
2021-04-07,16:25:07.837000,-0.0015857999999999998,-0.00053117,-0.00033883,0.00092003,0.00029659
2021-04-07,16:25:07.839000,-0.0015014000000000002,-0.00052227,-0.00033736,0.00090613,0.00024234
2021-04-07,16:25:07.841000,-0.0012251,-0.00050969,-0.0003319,0.00084126,0.00015327
2021-04-07,16:25:07.843000,-0.00089157,-0.00051162,-0.00032972,0.00075295,3.3384000000000004e-05
2021-04-07,16:25:07.845000,-0.00056116,-0.00051078,-0.00031341,0.00066052,-8.908299999999999e-05
2021-04-07,16:25:07.847000,-0.00035178,-0.00049137,-0.0002742,0.00059715,-0.00015438
2021-04-07,16:25:07.849000,-0.00033451,-0.00048752,-0.00022943,0.0006073,-0.00015725
2021-04-07,16:25:07.851000,-0.00046881,-0.00047961,-0.00019607,0.00066286,-0.00010623
2021-04-07,16:25:07.853000,-0.00070044,-0.00047232,-0.00018117,0.00074574,-2.7526e-05
2021-04-07,16:25:07.855000,-0.00094263,-0.00047432,-0.00017383,0.00084254,3.1209e-05
2021-04-07,16:25:07.857000,-0.0010481,-0.00045696,-0.00017363,0.00088685,5.1262e-05
2021-04-07,16:25:07.859000,-0.00096009,-0.00045276,-0.00020055,0.00086518,1.7840999999999997e-05
2021-04-07,16:25:07.861000,-0.00074893,-0.00044586,-0.00023218,0.00079339,-8.1364e-05
2021-04-07,16:25:07.863000,-0.00041596,-0.0004203,-0.00024635,0.00067558,-0.00021238
2021-04-07,16:25:07.865000,-6.5015e-05,-0.00041787,-0.0002676,0.00057771,-0.00032089999999999994
2021-04-07,16:25:07.867000,0.00011639,-0.00042348,-0.0002807,0.00055044,-0.00039678
2021-04-07,16:25:07.869000,0.00012759,-0.00044757,-0.00026974,0.00058171,-0.00044746
2021-04-07,16:25:07.871000,-4.4797e-05,-0.00049071,-0.00026404,0.00068343,-0.00044406
2021-04-07,16:25:07.873000,-0.00034063,-0.00051996,-0.00026658,0.00082724,-0.00039664
2021-04-07,16:25:07.875000,-0.00054714,-0.00055095,-0.00027701,0.00093577,-0.00037584
2021-04-07,16:25:07.877000,-0.00062775,-0.0005974,-0.00029939999999999996,0.0010095,-0.00039295
2021-04-07,16:25:07.879000,-0.00059333,-0.00063224,-0.00032357,0.001057,-0.00045587
2021-04-07,16:25:07.881000,-0.00035393,-0.00060808,-0.00034933,0.0010349,-0.00058835
2021-04-07,16:25:07.883000,1.1595e-05,-0.00054634,-0.00034674,0.00095816,-0.00070451
2021-04-07,16:25:07.885000,0.00032472,-0.00046611,-0.00031178,0.00089629,-0.00078024
2021-04-07,16:25:07.887000,0.00055328,-0.00036865,-0.00030061,0.00087034,-0.00083242
2021-04-07,16:25:07.889000,0.00059218,-0.00026892,-0.00030049,0.0009052999999999999,-0.00076489
2021-04-07,16:25:07.891000,0.00037312,-0.00012199,-0.00030093,0.0010277,-0.00060689
2021-04-07,16:25:07.893000,0.00010834,5.5126999999999996e-05,-0.00032665,0.0011439,-0.0004034
2021-04-07,16:25:07.895000,-0.00012769,0.00027553,-0.00032567,0.0012102,-0.00014496
2021-04-07,16:25:07.897000,-0.00030672,0.00053416,-0.00029394,0.0012027000000000001,2.4171e-05
2021-04-07,16:25:07.899000,-0.00023094,0.00077077,-0.00025693,0.0010023999999999999,0.0001041
2021-04-07,16:25:07.901000,4.3633e-05,0.0010626,-0.0001609,0.00071271,0.00019146
2021-04-07,16:25:07.903000,0.00034432,0.0012766,-3.2018000000000004e-05,0.0004476,0.00020413
2021-04-07,16:25:07.905000,0.00064759,0.0012961,6.460899999999999e-05,0.00015555,0.00015301
2021-04-07,16:25:07.907000,0.00085882,0.0013441,0.00019257,-4.9418e-05,0.00013991
2021-04-07,16:25:07.909000,0.00087107,0.0013932,0.00037907,-0.00011315,0.00015944
2021-04-07,16:25:07.911000,0.00068677,0.001255,0.00051498,-0.00010429,0.000193
2021-04-07,16:25:07.913000,0.00033656,0.0010585,0.00055791,-5.2279e-05,0.00026408
2021-04-07,16:25:07.915000,-2.3284e-05,0.0009156,0.00058125,-5.490499999999999e-06,0.00033516
2021-04-07,16:25:07.917000,-0.00023922,0.00066003,0.00060038,8.873e-05,0.00032361
2021-04-07,16:25:07.919000,-0.00039241,0.00030068,0.00049925,0.00022826,0.00025341
2021-04-07,16:25:07.921000,-0.00048192,2.151e-05,0.00023711,0.00032229,0.00015258
2021-04-07,16:25:07.923000,-0.00042354,-0.00015282,2.6174e-05,0.00038773,1.1434000000000001e-05
2021-04-07,16:25:07.925000,-0.00031846,-0.00023324,1.6684e-05,0.00043692,-0.00011527
2021-04-07,16:25:08.047000,0.0035173,-0.00074097,-0.0037631,-0.0014947,-0.00091121
2021-04-07,16:25:08.049000,0.0038056999999999995,-0.0010095,-0.0038001999999999997,-0.0016575,-0.0010755
2021-04-07,16:25:08.051000,0.0032775,-0.00074633,-0.0034635,-0.001306,-0.00093186
2021-04-07,16:25:08.053000,0.0031149000000000003,-0.00077783,-0.0034199,-0.0012074000000000002,-0.00088498
2021-04-07,16:25:08.055000,0.0027566999999999995,-0.00068769,-0.0032720999999999996,-0.00099317,-0.00077961
2021-04-07,16:25:08.057000,0.002592,-0.00067662,-0.0032274,-0.0008742000000000001,-0.0007294
2021-04-07,16:25:08.059000,0.0025870999999999997,-0.00070153,-0.0032270000000000003,-0.00085232,-0.00075192
2021-04-07,16:25:08.061000,0.0026902,-0.00063116,-0.0031747,-0.0008320000000000001,-0.00080469
2021-04-07,16:25:08.063000,0.0030421,-0.00060998,-0.0031875,-0.00088717,-0.00090459
2021-04-07,16:25:08.065000,0.0032384000000000002,-0.00056269,-0.0031611,-0.00090184,-0.00096643
2021-04-07,16:25:08.067000,0.0033433,-0.00054622,-0.0031550000000000003,-0.00091757,-0.0010025000000000001
2021-04-07,16:25:08.069000,0.0032933,-0.00055213,-0.0031547,-0.00088763,-0.00097578
2021-04-07,16:25:08.071000,0.0029785999999999997,-0.00054945,-0.0031343000000000005,-0.00078627,-0.00088747
2021-04-07,16:25:08.073000,0.0026622,-0.00056648,-0.0031369,-0.00067547,-0.00078552
2021-04-07,16:25:08.075000,0.002373,-0.00056896,-0.0031354,-0.00055438,-0.00067442
2021-04-07,16:25:08.077000,0.0021508000000000005,-0.00057456,-0.003151,-0.00048369,-0.0006263999999999999
2021-04-07,16:25:08.079000,0.0021379999999999997,-0.00058205,-0.0031861,-0.00048582,-0.0006451
2021-04-07,16:25:08.081000,0.0023079,-0.00057828,-0.0032318000000000004,-0.00053075,-0.00068836
2021-04-07,16:25:08.083000,0.002571,-0.00057499,-0.0032863,-0.00061019,-0.00078137
2021-04-07,16:25:08.085000,0.002817,-0.00056842,-0.0033238,-0.00068943,-0.00088399
2021-04-07,16:25:08.087000,0.0029294,-0.00055991,-0.0033610999999999997,-0.00071368,-0.00092066
2021-04-07,16:25:08.089000,0.0028648000000000002,-0.00056382,-0.0034128,-0.0006881,-0.00090412
2021-04-07,16:25:08.091000,0.002651,-0.00055867,-0.0034643,-0.0006087999999999999,-0.00082429
2021-04-07,16:25:08.093000,0.0023545000000000003,-0.00053114,-0.0035210000000000003,-0.00047937,-0.00068969
2021-04-07,16:25:08.095000,0.0020685,-0.0005236,-0.0035838999999999997,-0.00039222,-0.0006024
2021-04-07,16:25:08.097000,0.0019538,-0.00051701,-0.0036817,-0.00036279,-0.00057028
2021-04-07,16:25:08.099000,0.0020498,-0.00049456,-0.0038225999999999998,-0.00036939,-0.00057831
2021-04-07,16:25:08.101000,0.0022424,-0.00049542,-0.0039507,-0.00044384,-0.00066925
2021-04-07,16:25:08.103000,0.0025605,-0.00050032,-0.0040638,-0.00055476,-0.00080547
2021-04-07,16:25:08.105000,0.0029192,-0.00050208,-0.0041654,-0.000644,-0.00091905
2021-04-07,16:25:08.107000,0.0030974,-0.00049771,-0.0042366999999999995,-0.00069383,-0.00098352
2021-04-07,16:25:08.109000,0.0031296999999999996,-0.00047227,-0.0042951000000000005,-0.00070604,-0.001001
2021-04-07,16:25:08.111000,0.0030116999999999995,-0.00045742,-0.0043415,-0.00065224,-0.0009432
2021-04-07,16:25:08.113000,0.0027328000000000005,-0.00044605,-0.0043806,-0.00054895,-0.00082635
2021-04-07,16:25:08.115000,0.002553,-0.00043645,-0.004437300000000001,-0.00049057,-0.0007704
2021-04-07,16:25:08.117000,0.0025495,-0.00043629,-0.0044959,-0.00047733,-0.00077674
2021-04-07,16:25:08.119000,0.0026517,-0.00042183,-0.0045256,-0.00052146,-0.00082355
2021-04-07,16:25:08.121000,0.0029781,-0.00041949,-0.0045395,-0.00065694,-0.00095945
2021-04-07,16:25:08.123000,0.0034671,-0.00042475,-0.0045456,-0.0007917000000000001,-0.0011175
2021-04-07,16:25:08.125000,0.0038899,-0.00041268,-0.0045293,-0.00091458,-0.0012562
2021-04-07,16:25:08.127000,0.0042103999999999996,-0.00041261,-0.0044884999999999994,-0.0010359000000000002,-0.0013775
2021-04-07,16:25:08.129000,0.0044128,-0.00042242,-0.0044238,-0.0010955,-0.0014460999999999999
2021-04-07,16:25:08.131000,0.0044457,-0.00042691,-0.0043508,-0.0011126,-0.0014669000000000001
2021-04-07,16:25:08.133000,0.004338399999999999,-0.00041998,-0.0042599,-0.0010772,-0.001417
2021-04-07,16:25:08.135000,0.0041207,-0.00041577,-0.0041547,-0.00099149,-0.0013291
2021-04-07,16:25:08.137000,0.003932199999999999,-0.00043736,-0.004064,-0.00095297,-0.0013043
2021-04-07,16:25:08.139000,0.0039854,-0.00044719,-0.0039703,-0.00099358,-0.0013455
2021-04-07,16:25:08.141000,0.0042599,-0.00044038,-0.0038748000000000003,-0.0010785,-0.0014234999999999999
2021-04-07,16:25:08.143000,0.0046153999999999995,-0.00043784,-0.0037698000000000002,-0.0011960999999999999,-0.001541
2021-04-07,16:25:08.145000,0.0049385,-0.00042787,-0.0036473,-0.0013138,-0.0016571
2021-04-07,16:25:08.147000,0.0050942,-0.00042815,-0.0035101999999999998,-0.0013658,-0.0017132000000000002
2021-04-07,16:25:08.149000,0.0050739,-0.00042764,-0.0033484,-0.0013636,-0.0017180999999999997
2021-04-07,16:25:08.151000,0.0049293,-0.00041513,-0.0032086999999999997,-0.0013243,-0.0016718
2021-04-07,16:25:08.153000,0.0046659,-0.00041470000000000005,-0.00307,-0.0012307,-0.0015641
2021-04-07,16:25:08.155000,0.00441,-0.00041371,-0.0029118000000000004,-0.0011593,-0.001482
2021-04-07,16:25:08.157000,0.004326699999999999,-0.00041132,-0.0027964,-0.0011507,-0.0014658
2021-04-07,16:25:08.159000,0.0044179,-0.00041724,-0.0027111,-0.0011757,-0.0014849
2021-04-07,16:25:08.161000,0.004606399999999999,-0.00043200000000000004,-0.002641,-0.0012602,-0.0015710999999999998
2021-04-07,16:25:08.163000,0.0048945,-0.00044542,-0.0025719000000000002,-0.0013796,-0.0017017
2021-04-07,16:25:08.165000,0.0051908,-0.00043301,-0.0024739999999999996,-0.0014597000000000002,-0.0017844999999999998
2021-04-07,16:25:08.167000,0.005290100000000001,-0.00042218,-0.0023655,-0.0014880000000000002,-0.0018104
2021-04-07,16:25:08.169000,0.0052331,-0.00043129999999999997,-0.0022643,-0.0014768,-0.0018050999999999998
2021-04-07,16:25:08.171000,0.0050413,-0.00044003,-0.0021665,-0.0014130999999999998,-0.001737
2021-04-07,16:25:08.173000,0.0047157,-0.00044549,-0.0020626,-0.0013050999999999998,-0.001614
2021-04-07,16:25:08.175000,0.0045456,-0.00044578,-0.0019895,-0.0012445,-0.0015481
2021-04-07,16:25:08.177000,0.0045534,-0.00044714,-0.0019497,-0.0012498,-0.0015645
2021-04-07,16:25:08.179000,0.0047107,-0.00045805,-0.0019314,-0.0012985,-0.0016253
2021-04-07,16:25:08.181000,0.0051214,-0.00047476,-0.0019555999999999996,-0.0014705999999999999,-0.0017983
2021-04-07,16:25:08.183000,0.0057091,-0.00047985,-0.0019652999999999997,-0.0016533000000000001,-0.0020063
2021-04-07,16:25:08.185000,0.0063214,-0.00050547,-0.0019952000000000004,-0.0018065000000000002,-0.002205
2021-04-07,16:25:08.187000,0.0067564999999999995,-0.00056585,-0.0020373,-0.0020054,-0.0024094999999999997
2021-04-07,16:25:08.189000,0.0071998999999999995,-0.00058622,-0.0020491999999999997,-0.0020925,-0.0024876
2021-04-07,16:25:08.191000,0.0073672,-0.00059606,-0.0021160999999999997,-0.0021774,-0.0025936999999999996
2021-04-07,16:25:08.193000,0.0072913,-0.00061079,-0.0021449000000000004,-0.0021772,-0.0025960000000000002
2021-04-07,16:25:08.195000,0.0074312,-0.00061264,-0.0022247,-0.0020824999999999997,-0.0024855999999999997
2021-04-07,16:25:08.197000,0.007158499999999999,-0.00063975,-0.0023710999999999997,-0.0022421,-0.0026498
2021-04-07,16:25:08.199000,0.007577600000000001,-0.00059031,-0.0024144,-0.0020759,-0.0024594
2021-04-07,16:25:08.201000,0.007586399999999999,-0.00047392,-0.0024086,-0.0014923,-0.0018319000000000002
2021-04-07,16:25:08.203000,0.005228,-0.00041933,-0.0021599,-0.001291,-0.0016152999999999999
2021-04-07,16:25:08.205000,0.005500199999999999,-0.00047523,-0.0022600000000000003,-0.0016934,-0.0020471
2021-04-07,16:25:08.207000,0.008373299999999998,-0.00060488,-0.0030307,-0.0024010999999999998,-0.0028106
2021-04-07,16:25:08.209000,0.0086,-0.00064105,-0.0033207,-0.0026107,-0.0030207
2021-04-07,16:25:08.211000,0.008030800000000001,-0.000641,-0.0033167,-0.0023826999999999997,-0.0027819000000000003
2021-04-07,16:25:08.213000,0.008006699999999999,-0.00066873,-0.0035735,-0.0023312,-0.0027370999999999997
2021-04-07,16:25:08.215000,0.0076251999999999995,-0.00063169,-0.0037094000000000003,-0.0022743999999999998,-0.0026512
2021-04-07,16:25:08.217000,0.0077053,-0.00063155,-0.0039308,-0.0022629,-0.0026303
2021-04-07,16:25:08.219000,0.0078768,-0.00066148,-0.0041497,-0.0023451,-0.0027079
2021-04-07,16:25:08.221000,0.008138,-0.00066767,-0.0042035,-0.0024208000000000003,-0.0027871
2021-04-07,16:25:08.223000,0.008659700000000001,-0.00069475,-0.0043249,-0.0025756999999999998,-0.0029779
2021-04-07,16:25:08.225000,0.0089169,-0.00069934,-0.0043859,-0.0026759,-0.0030692
2021-04-07,16:25:08.227000,0.0090256,-0.00070145,-0.0044067,-0.0027015999999999997,-0.0030869
2021-04-07,16:25:08.229000,0.0089854,-0.00071771,-0.004430399999999999,-0.0026822,-0.0030878
2021-04-07,16:25:08.231000,0.0086439,-0.00070865,-0.004365399999999999,-0.0025556999999999997,-0.0029494
2021-04-07,16:25:08.233000,0.0081357,-0.00068861,-0.0043121,-0.0023805,-0.0027570999999999997
2021-04-07,16:25:08.235000,0.0076649,-0.00067758,-0.0042606,-0.002219,-0.0025993
2021-04-07,16:25:08.237000,0.007345699999999999,-0.00066673,-0.0041662,-0.0020997,-0.0024827
2021-04-07,16:25:08.239000,0.007156,-0.00064396,-0.0040591,-0.0020302,-0.0024035999999999997
2021-04-07,16:25:08.241000,0.0071378,-0.00062169,-0.0039371,-0.0020194,-0.0023853000000000004
2021-04-07,16:25:08.243000,0.0072048,-0.00060933,-0.0038147,-0.0020371,-0.0023864999999999997
2021-04-07,16:25:08.245000,0.0070721000000000004,-0.00060666,-0.0036469000000000002,-0.0019979,-0.0023350000000000003
2021-04-07,16:25:08.247000,0.0067592,-0.00058439,-0.0034139,-0.0018797999999999998,-0.0022271
2021-04-07,16:25:08.249000,0.0062143,-0.00054263,-0.0031409000000000003,-0.0016905999999999998,-0.0020161
2021-04-07,16:25:08.251000,0.005332899999999999,-0.00053858,-0.0028323,-0.0014299000000000002,-0.0017300999999999998
2021-04-07,16:25:08.253000,0.0045121,-0.00052871,-0.0025404,-0.0011346,-0.0014185
2021-04-07,16:25:08.255000,0.0038119,-0.00048682,-0.0023047,-0.00087604,-0.0011057999999999999
2021-04-07,16:25:08.257000,0.0031372,-0.00047287,-0.0021344999999999997,-0.0006967000000000001,-0.00089718
2021-04-07,16:25:08.259000,0.0027440999999999998,-0.00046158,-0.0020027,-0.00057964,-0.000775
2021-04-07,16:25:08.261000,0.0026167,-0.00044807,-0.0018855999999999999,-0.00053413,-0.00071194
2021-04-07,16:25:08.263000,0.0026052,-0.00044562,-0.0017797000000000002,-0.00054777,-0.00072385
2021-04-07,16:25:08.265000,0.0025715,-0.00042845,-0.0016690000000000001,-0.00053801,-0.00070677
2021-04-07,16:25:08.267000,0.0024192,-0.00041584,-0.0015869000000000002,-0.00047465,-0.00062331
2021-04-07,16:25:08.269000,0.002096,-0.00040227,-0.0015266,-0.00036832,-0.0005011999999999999
2021-04-07,16:25:08.271000,0.0015779000000000001,-0.00040177,-0.0014745,-0.000202,-0.00032547
2021-04-07,16:25:08.273000,0.0010071,-0.00041656,-0.0014452999999999998,-8.3751e-06,-0.00011642
2021-04-07,16:25:08.275000,0.00052903,-0.00039782,-0.0014314,0.0001146,3.5156e-05
2021-04-07,16:25:08.277000,0.00031574,-0.00038427,-0.0014609000000000002,0.00015272,9.1956e-05
2021-04-07,16:25:08.279000,0.0003516,-0.00038895,-0.001529,0.00014086,0.00010733
2021-04-07,16:25:08.281000,0.00056195,-0.00039125,-0.0016232,5.245e-05,3.6451e-05
2021-04-07,16:25:08.283000,0.00096532,-0.00040264,-0.0017347,-9.03e-05,-0.00011630000000000001
2021-04-07,16:25:08.285000,0.0012742,-0.00040106,-0.0018541,-0.00020183,-0.00020946
2021-04-07,16:25:08.287000,0.0013657,-0.00040052,-0.0019823,-0.00025051,-0.00024438
2021-04-07,16:25:08.289000,0.0013525,-0.00041027,-0.0020846,-0.00025113,-0.00023881
2021-04-07,16:25:08.291000,0.0011443,-0.00041354,-0.0022,-0.00018989,-0.00014799
2021-04-07,16:25:08.293000,0.00079632,-0.00040971,-0.0023483,-9.5534e-05,-4.0842e-05
2021-04-07,16:25:08.295000,0.00057695,-0.00039458,-0.0024904,-4.8688e-05,2.9985e-05
2021-04-07,16:25:08.297000,0.0005724,-0.00038444,-0.0026313,-5.1692e-05,4.5661e-05
2021-04-07,16:25:08.299000,0.00069374,-0.00037477,-0.0027741,-0.00011869,-2.8295e-05
2021-04-07,16:25:08.301000,0.0010193,-0.00036472,-0.0029244,-0.00026779,-0.00015224
2021-04-07,16:25:08.303000,0.0015142999999999999,-0.00035558,-0.003034,-0.00042372,-0.00030386
2021-04-07,16:25:08.305000,0.0018719000000000001,-0.00034399,-0.0030971999999999996,-0.00053863,-0.00046021
2021-04-07,16:25:08.307000,0.0020357,-0.00036518,-0.0031526999999999996,-0.00059176,-0.00052783
2021-04-07,16:25:08.309000,0.0020062,-0.00037778,-0.0031576,-0.00056481,-0.0004954
2021-04-07,16:25:08.311000,0.0017422999999999998,-0.00034662,-0.0031306999999999997,-0.00048552,-0.00041362
2021-04-07,16:25:08.313000,0.0014540999999999998,-0.00031977,-0.0031005,-0.00038495,-0.00029002
2021-04-07,16:25:08.315000,0.0012495999999999998,-0.00029852,-0.0030467,-0.00028842,-0.00018
2021-04-07,16:25:08.317000,0.0011202999999999999,-0.00028902,-0.002994,-0.00024912,-0.00017413
2021-04-07,16:25:08.319000,0.0012009,-0.00029149,-0.0029634,-0.00029762,-0.00024694
2021-04-07,16:25:08.321000,0.0014914000000000001,-0.00028148,-0.0029264,-0.00037748,-0.00033297
2021-04-07,16:25:08.323000,0.0018145,-0.00027125,-0.0028564,-0.00045877,-0.00044688
2021-04-07,16:25:08.325000,0.0020395,-0.00025517,-0.0027737,-0.0005326,-0.00053313
2021-04-07,16:25:08.327000,0.0020062,-0.00023533,-0.0026595,-0.00051782,-0.00050934
2021-04-07,16:25:08.329000,0.0017225,-0.00022677,-0.0025034000000000002,-0.00042264,-0.00043188
2021-04-07,16:25:08.331000,0.0014023,-0.00021672,-0.0023447,-0.00030178,-0.00032329
2021-04-07,16:25:08.333000,0.0010186,-0.00020205,-0.0021898000000000004,-0.00015054,-0.00016771
2021-04-07,16:25:08.335000,0.00065423,-0.00018331,-0.002046,-4.9108999999999993e-05,-6.0696e-05
2021-04-07,16:25:08.337000,0.00057858,-0.00017301,-0.0019169,-4.4703e-05,-4.7609e-05
2021-04-07,16:25:08.339000,0.00070775,-0.00018392,-0.0017877,-8.250799999999999e-05,-8.4204e-05
2021-04-07,16:25:08.341000,0.00099893,-0.00018543,-0.001641,-0.00017717,-0.00019069999999999997
2021-04-07,16:25:08.343000,0.0014470000000000002,-0.00017025,-0.0014904000000000002,-0.00032106,-0.00034743
2021-04-07,16:25:08.345000,0.0017509000000000001,-0.00017344,-0.0013050999999999998,-0.00041341,-0.00045491
2021-04-07,16:25:08.347000,0.0018343,-0.00018365,-0.0010546,-0.00043097,-0.00049589
2021-04-07,16:25:08.349000,0.0017890999999999998,-0.00016704,-0.00082081,-0.00041641,-0.0004598
2021-04-07,16:25:08.351000,0.001534,-0.00014525,-0.00058281,-0.00032933,-0.00034344
2021-04-07,16:25:08.353000,0.0011232000000000002,-0.00014225,-0.00030701,-0.0001888,-0.00023344
2021-04-07,16:25:08.355000,0.00081803,-0.000143,-5.1885e-05,-0.00010719,-0.00014981
2021-04-07,16:25:08.357000,0.00074453,-0.00014336,0.00018658,-8.1216e-05,-0.00010652
2021-04-07,16:25:08.359000,0.00082902,-0.00014392,0.00040147,-0.00011242,-0.00016167
2021-04-07,16:25:08.361000,0.0010951,-0.00015081,0.00058142,-0.00022386,-0.00027952
2021-04-07,16:25:08.363000,0.0015006,-0.00017134,0.00073845,-0.0003403,-0.00041105
2021-04-07,16:25:08.365000,0.0017795000000000003,-0.00018057,0.000932,-0.00042212,-0.00052571
2021-04-07,16:25:08.367000,0.0018593,-0.00018865,0.0011974,-0.00044657,-0.00057068
2021-04-07,16:25:08.369000,0.0017350999999999998,-0.00020535,0.0014604000000000002,-0.00038954,-0.00051706
2021-04-07,16:25:08.371000,0.0013748,-0.00019754,0.0017165,-0.00027239,-0.00039244
2021-04-07,16:25:08.373000,0.00098912,-0.00019512,0.0019899,-0.00013116,-0.00025357
2021-04-07,16:25:08.375000,0.0006998999999999999,-0.00021177,0.0022413,-2.0513e-05,-0.00013155
2021-04-07,16:25:08.377000,0.00052333,-0.00020556,0.0024709,1.6307e-05,-8.494600000000001e-05
2021-04-07,16:25:08.379000,0.00060559,-0.00019408,0.0026752,-3.9997e-05,-0.00013384
2021-04-07,16:25:08.381000,0.00090075,-0.00019567,0.0028487,-0.00011927,-0.00021810000000000002
2021-04-07,16:25:08.383000,0.0012255999999999999,-0.00019863,0.003038,-0.00021819,-0.00034124
2021-04-07,16:25:08.385000,0.0014932,-0.00020976,0.0032406999999999996,-0.00032616,-0.0004599
2021-04-07,16:25:08.387000,0.0015288,-0.00022358,0.0034534999999999995,-0.00030666,-0.00047875
2021-04-07,16:25:08.389000,0.0013050999999999998,-0.00022553,0.0036927,-0.00026771,-0.00042121
2021-04-07,16:25:08.391000,0.0010205,-0.00021734,0.0039378,-0.00015449,-0.00030665
2021-04-07,16:25:08.393000,0.00064067,-0.00020295,0.004189,1.9779e-05,-0.0001392
2021-04-07,16:25:08.395000,0.00023723,-0.00019797,0.004395399999999999,8.366600000000001e-05,-1.404e-05
2021-04-07,16:25:08.397000,0.00010478,-0.0002094,0.0045409,0.00018472,1.1275e-05
2021-04-07,16:25:08.399000,0.0001975,-0.00021382,0.0046798000000000005,0.00010098,-2.2833000000000003e-05
2021-04-07,16:25:08.401000,0.00043919999999999994,-0.00022085,0.0047803,5.8791999999999995e-05,-0.00011656
2021-04-07,16:25:08.403000,0.00082138,-0.00023632,0.0048481,-1.5595999999999998e-05,-0.00025642
2021-04-07,16:25:08.405000,0.0010682,-0.00023678,0.0049402000000000005,-0.00027566,-0.00033842
2021-04-07,16:25:08.407000,0.0010647,-0.00023078,0.0050396,4.7011e-05,-0.00034466
2021-04-07,16:25:08.409000,0.00091049,-0.00021392,0.0051421999999999995,-0.0003685,-0.00027109
2021-04-07,16:25:08.411000,0.00056053,-0.00020649,0.0052694,-0.0010877,-0.00011431
2021-04-07,16:25:08.413000,6.0355e-05,-0.00023042,0.005400899999999999,-0.00011228,1.2461e-05
2021-04-07,16:25:08.415000,-0.00032346,-0.00023389,0.0055231,0.00042324,0.00010178
2021-04-07,16:25:08.417000,-0.00046284,-0.00022819,0.0056245,0.00011094,0.00016132
2021-04-07,16:25:08.419000,-0.00042014,-0.00023331,0.0057044,0.00024788,0.00012063
2021-04-07,16:25:08.421000,-0.00016353,-0.00021945,0.0057875,9.227e-05,2.4329e-05
2021-04-07,16:25:08.423000,0.00021630000000000003,-0.00022437,0.0058682,-3.8449000000000004e-05,-7.975e-05
2021-04-07,16:25:08.425000,0.00045481,-0.0002378,0.0059854,-3.8378000000000004e-05,-0.00016486
2021-04-07,16:25:08.427000,0.0004953000000000001,-0.00022065,0.0061681999999999996,-0.00013251,-0.00017952
2021-04-07,16:25:08.429000,0.00031010000000000006,-0.00021661,0.006358699999999999,6.7142e-07,-0.00011337
2021-04-07,16:25:08.431000,-8.8945e-05,-0.00021295,0.006549299999999999,0.00012568,1.8332e-05
2021-04-07,16:25:08.433000,-0.00050616,-0.00018243,0.0067387,0.0002563,0.00017122
2021-04-07,16:25:08.435000,-0.00083254,-0.00016711,0.006887600000000001,0.00039603,0.00029523
2021-04-07,16:25:08.437000,-0.00096613,-0.00016595,0.007008100000000001,0.00040522,0.00032922
2021-04-07,16:25:08.439000,-0.0008238999999999999,-0.00016259,0.007106100000000001,0.00035425,0.0002572
2021-04-07,16:25:08.441000,-0.00050894,-0.00017071,0.007178399999999999,0.0002515,0.00015426
2021-04-07,16:25:08.443000,-0.00014044,-0.00017908,0.0072534999999999995,0.00012959,3.5771e-05
2021-04-07,16:25:08.445000,0.00017409,-0.00018268,0.007340100000000001,2.4895e-05,-8.7735e-05
2021-04-07,16:25:08.447000,0.00024366,-0.00017799,0.0074578000000000005,4.6584e-06,-0.00011548
2021-04-07,16:25:08.449000,3.9753000000000004e-05,-0.00016432,0.007607300000000001,6.6795e-05,-4.6745e-05
2021-04-07,16:25:08.451000,-0.00025792,-0.00016894,0.0077601,0.00016527,4.6928e-05
2021-04-07,16:25:08.453000,-0.00062747,-0.00015649,0.0079215,0.00030507,0.00017972
2021-04-07,16:25:08.455000,-0.00096528,-0.00012071,0.00806,0.00039937,0.00029519
2021-04-07,16:25:08.457000,-0.0010171,-0.00011757,0.008152600000000001,0.00040807,0.00029698
2021-04-07,16:25:08.459000,-0.00083871,-0.00010575,0.0082204,0.00035507,0.00023173
2021-04-07,16:25:08.461000,-0.00049687,-7.338100000000001e-05,0.0082676,0.00023108,0.00011111
2021-04-07,16:25:08.463000,-2.861e-05,-6.1792e-05,0.0083036,7.5545e-05,-6.2029e-05
2021-04-07,16:25:08.465000,0.00029363,-5.8266e-05,0.0083507,-3.7416e-05,-0.00017830000000000002
2021-04-07,16:25:08.467000,0.00036712,-5.2131999999999995e-05,0.0084241,-6.8017e-05,-0.00021317
2021-04-07,16:25:08.469000,0.00025857,-2.5997e-05,0.0085042,-1.8993e-05,-0.00016747
2021-04-07,16:25:08.471000,-3.2792e-05,3.3243e-06,0.008598,8.6954e-05,-5.1605e-05
2021-04-07,16:25:08.473000,-0.00042973,1.6142e-05,0.0087089,0.00019481,4.1171e-05
2021-04-07,16:25:08.475000,-0.00070561,4.2672e-05,0.008788899999999999,0.00026008,0.00010254
2021-04-07,16:25:08.477000,-0.00070994,7.1448e-05,0.0088391,0.00026628,0.00012538
2021-04-07,16:25:08.479000,-0.00052027,8.208799999999999e-05,0.008863600000000001,0.000183,3.5552e-05
2021-04-07,16:25:08.481000,-0.00014616,8.4719e-05,0.0088579,4.0818e-05,-0.00013189
2021-04-07,16:25:08.483000,0.00034668,8.677299999999999e-05,0.0088553,-9.580399999999999e-05,-0.00028617
2021-04-07,16:25:08.485000,0.00069961,8.970700000000001e-05,0.008865799999999998,-0.0002114,-0.00040741
2021-04-07,16:25:08.487000,0.00083538,9.4122e-05,0.0088963,-0.00026524,-0.00046709
2021-04-07,16:25:08.489000,0.00071994,9.997299999999999e-05,0.008963299999999999,-0.00021702,-0.00042052
2021-04-07,16:25:08.491000,0.00039339999999999997,0.00011079999999999998,0.0090486,-0.00011655,-0.00031302
2021-04-07,16:25:08.493000,7.5644e-05,0.00013167,0.0091172,-1.2849e-05,-0.00019317
2021-04-07,16:25:08.495000,-0.00014729,0.00014297,0.009164299999999998,6.756600000000001e-05,-0.00010390000000000002
2021-04-07,16:25:08.497000,-0.00018659999999999998,0.00014664,0.0091832,6.3003e-05,-0.00012043
2021-04-07,16:25:08.499000,7.2899e-05,0.00015853,0.009164499999999999,-3.0055999999999998e-05,-0.00021716
2021-04-07,16:25:08.501000,0.00053745,0.00015798,0.0091272,-0.00017869999999999998,-0.00035997
2021-04-07,16:25:08.503000,0.0010186,0.00014415,0.0090846,-0.00034827,-0.00053588
2021-04-07,16:25:08.505000,0.0013882,0.00014013,0.0090603,-0.00046115,-0.00065484
2021-04-07,16:25:08.507000,0.001518,0.00014649,0.0090744,-0.00049206,-0.00067934
2021-04-07,16:25:08.509000,0.0013717,0.00013457,0.009114299999999999,-0.00045217,-0.00064099
2021-04-07,16:25:08.511000,0.0011217,0.00012805,0.0091735,-0.00035478,-0.000554
2021-04-07,16:25:08.513000,0.00082448,0.00015988,0.0092367,-0.00024917,-0.00043554
2021-04-07,16:25:08.515000,0.00055377,0.00016516,0.009279299999999999,-0.00018797,-0.00036269
2021-04-07,16:25:08.517000,0.00058217,0.00015131,0.009289200000000001,-0.00020707,-0.00038748
2021-04-07,16:25:08.519000,0.00087999,0.00016409,0.0092642,-0.00029688,-0.00047256
2021-04-07,16:25:08.521000,0.0013046,0.00015313,0.0092228,-0.000442,-0.0006232
2021-04-07,16:25:08.523000,0.0018256,0.00012726,0.009187700000000002,-0.00061135,-0.00080255
2021-04-07,16:25:08.525000,0.0021953000000000003,0.00011991,0.009173299999999999,-0.00073485,-0.00092152
2021-04-07,16:25:08.527000,0.0022779,0.00011384,0.0091944,-0.00078318,-0.00097491
2021-04-07,16:25:08.529000,0.0021853000000000003,0.00011301,0.0092476,-0.00073806,-0.00093651
2021-04-07,16:25:08.531000,0.0018969000000000002,0.00011393,0.0093248,-0.00062181,-0.00082489
2021-04-07,16:25:08.533000,0.0015099,0.00010793,0.0094183,-0.0005166000000000001,-0.00072604
2021-04-07,16:25:08.535000,0.0012887,0.00010873,0.009492299999999999,-0.00045012,-0.00065481
2021-04-07,16:25:08.537000,0.0012799,0.00010809,0.009531200000000002,-0.00044134,-0.00064823
2021-04-07,16:25:08.539000,0.0015332,8.6277e-05,0.009546700000000002,-0.00052976,-0.00075395
2021-04-07,16:25:08.541000,0.0020164000000000002,6.738399999999999e-05,0.0095437,-0.00068393,-0.00092195
2021-04-07,16:25:08.543000,0.0024391,6.6625e-05,0.009551100000000002,-0.00082638,-0.0010754000000000002
2021-04-07,16:25:08.545000,0.0027405000000000003,6.2189e-05,0.009584899999999999,-0.00092067,-0.0011867000000000002
2021-04-07,16:25:08.547000,0.0028893,6.352e-05,0.009640899999999999,-0.00095492,-0.0012286
2021-04-07,16:25:08.549000,0.002719,7.0548e-05,0.009734,-0.00089775,-0.0011689
2021-04-07,16:25:08.551000,0.0023544,6.2582e-05,0.0098514,-0.00077788,-0.0010609999999999999
2021-04-07,16:25:08.553000,0.0020098,5.9906000000000005e-05,0.009965700000000001,-0.00066389,-0.00095635
2021-04-07,16:25:08.555000,0.0017792,7.089600000000001e-05,0.010067,-0.00057335,-0.00087162
2021-04-07,16:25:08.557000,0.0017612,7.7098e-05,0.010138,-0.00057089,-0.00087197
2021-04-07,16:25:08.559000,0.0020209,7.7013e-05,0.010168,-0.00068049,-0.00097106
2021-04-07,16:25:08.561000,0.0024656999999999995,8.2829e-05,0.010189,-0.00079748,-0.0011294
2021-04-07,16:25:08.563000,0.0029173000000000003,9.4063e-05,0.01023,-0.00092021,-0.0012908
2021-04-07,16:25:08.565000,0.0032718000000000005,8.859e-05,0.01029,-0.0010502,-0.0013890999999999999
2021-04-07,16:25:08.567000,0.0033582,8.307799999999999e-05,0.010385,-0.0010729000000000001,-0.0014213
2021-04-07,16:25:08.569000,0.0031388,9.581700000000001e-05,0.010526,-0.0010048,-0.001369
2021-04-07,16:25:08.571000,0.0028515999999999997,0.00010279,0.010684,-0.00089981,-0.0012347999999999999
2021-04-07,16:25:08.573000,0.0025356,0.00011988,0.010842000000000001,-0.00075074,-0.0010907
2021-04-07,16:25:08.575000,0.0022529,0.00014322,0.010974,-0.00065737,-0.0010016
2021-04-07,16:25:08.577000,0.0022675,0.00014848,0.011066,-0.00067316,-0.0010142999999999999
2021-04-07,16:25:08.579000,0.0025394000000000003,0.00015055,0.011136,-0.00073935,-0.0010986
2021-04-07,16:25:08.581000,0.0029294,0.00012897,0.011178,-0.00086587,-0.0012490000000000001
2021-04-07,16:25:08.583000,0.0034015,0.00011417,0.011216,-0.0010168,-0.0014301
2021-04-07,16:25:08.585000,0.0037258000000000005,0.00013913,0.011289,-0.0011033,-0.0015235
2021-04-07,16:25:08.587000,0.0037495,0.00014173,0.011385,-0.0011270999999999998,-0.0015520999999999998
2021-04-07,16:25:08.589000,0.0035856,0.00013905,0.01151,-0.0010615,-0.0014809
2021-04-07,16:25:08.591000,0.0032566,0.00015007,0.011659000000000001,-0.00092159,-0.00132
2021-04-07,16:25:08.593000,0.0028421999999999996,0.0001416,0.011775,-0.00081188,-0.0012281
2021-04-07,16:25:08.595000,0.0026078000000000004,0.00014643,0.011857,-0.0007381,-0.001155
