Date,Time,ecg1,ecg2,ecg3,ecg4,ecg5
2021-04-07,16:23:05.185000,-0.036633,-0.00032726,0.011026000000000001,0.012079000000000001,0.011706999999999999
2021-04-07,16:23:05.187000,-0.050022000000000004,-1.2152e-05,0.012225,0.015106999999999999,0.016303
2021-04-07,16:23:05.189000,-0.039019,0.00091179,0.011334,0.01319,0.013302000000000001
2021-04-07,16:23:05.191000,-0.044876,0.0019814,0.012076,0.014811000000000001,0.015871
2021-04-07,16:23:05.193000,-0.041787,0.0025691999999999998,0.01184,0.014223,0.015256
2021-04-07,16:23:05.195000,-0.04169,0.0025978000000000004,0.011669,0.013841,0.015231999999999999
2021-04-07,16:23:05.197000,-0.043720999999999996,0.0020938000000000003,0.011504,0.013578999999999999,0.015556
2021-04-07,16:23:05.199000,-0.042025,0.001567,0.011034,0.012615000000000001,0.014622
2021-04-07,16:23:05.201000,-0.043569,0.0013679,0.011036,0.012518000000000001,0.014969
2021-04-07,16:23:05.203000,-0.042375,0.0013896,0.010957999999999999,0.012043,0.01463
2021-04-07,16:23:05.205000,-0.042032,0.0015232000000000002,0.011052,0.01198,0.014647
2021-04-07,16:23:05.207000,-0.042166,0.0015009,0.011114,0.011984999999999999,0.014721000000000001
2021-04-07,16:23:05.209000,-0.041275,0.0014974,0.011056999999999999,0.011852,0.014490000000000001
2021-04-07,16:23:05.211000,-0.04123,0.0018424,0.011168,0.012046,0.014763
2021-04-07,16:23:05.213000,-0.040537000000000004,0.0019133,0.011134999999999999,0.011929,0.014633000000000002
2021-04-07,16:23:05.215000,-0.040447000000000004,0.0016076,0.011056,0.011948,0.014503
2021-04-07,16:23:05.217000,-0.040025,0.0015651,0.01098,0.012106,0.014490000000000001
2021-04-07,16:23:05.219000,-0.039458,0.0015616,0.010785,0.01222,0.014403000000000001
2021-04-07,16:23:05.221000,-0.0396,0.0012693,0.010562,0.012293,0.014280000000000001
2021-04-07,16:23:05.223000,-0.039604,0.00082123,0.010381,0.012152,0.013953
2021-04-07,16:23:05.225000,-0.039311,0.0010133,0.010482,0.012279,0.013888
2021-04-07,16:23:05.227000,-0.038314,0.0020308,0.010851000000000001,0.012685,0.014131
2021-04-07,16:23:05.229000,-0.03782,0.0025359000000000002,0.011035,0.012899,0.014272
2021-04-07,16:23:05.231000,-0.03835,0.0021475,0.010933,0.0128,0.014100999999999999
2021-04-07,16:23:05.233000,-0.039412,0.0010646,0.010582,0.012416,0.013622
2021-04-07,16:23:05.235000,-0.040631,-0.000197,0.010171,0.012124,0.01326
2021-04-07,16:23:05.237000,-0.041076,-0.00068163,0.010046,0.012093000000000001,0.013113999999999999
2021-04-07,16:23:05.239000,-0.041042,-0.00067236,0.010101,0.012119,0.013044
2021-04-07,16:23:05.241000,-0.040748,-0.00029029,0.010317,0.012311,0.013219999999999999
2021-04-07,16:23:05.243000,-0.04052,0.00019866,0.010581,0.012569,0.013456999999999998
2021-04-07,16:23:05.245000,-0.040766000000000004,0.00032731,0.01073,0.012762,0.013636
2021-04-07,16:23:05.247000,-0.041044,0.00048795,0.010926,0.012993000000000001,0.013888
2021-04-07,16:23:05.249000,-0.041557,0.00048041,0.011028,0.013128,0.014013999999999999
2021-04-07,16:23:05.251000,-0.041651,0.00073454,0.01119,0.013319999999999999,0.014199000000000002
2021-04-07,16:23:05.253000,-0.040837,0.0017123000000000002,0.011595000000000001,0.013675,0.014591999999999999
2021-04-07,16:23:05.255000,-0.040344,0.0022414,0.011797,0.013815000000000001,0.014764
2021-04-07,16:23:05.257000,-0.040556,0.001852,0.011696999999999999,0.013655,0.014602
2021-04-07,16:23:05.259000,-0.04115,0.0010334,0.011413,0.013330000000000002,0.014230000000000001
2021-04-07,16:23:05.261000,-0.041686,0.00021909,0.011049,0.013000999999999999,0.013806
2021-04-07,16:23:05.263000,-0.041791,-0.00024658,0.010834,0.012833,0.013587
2021-04-07,16:23:05.265000,-0.041741,-0.00031621,0.010757,0.012796,0.013557
2021-04-07,16:23:05.267000,-0.041548,-9.222200000000001e-05,0.010771,0.012849000000000001,0.013609
2021-04-07,16:23:05.269000,-0.041313,0.00017194,0.010845,0.012946000000000001,0.013722
2021-04-07,16:23:05.271000,-0.041232,0.00031215,0.010872,0.01299,0.013774000000000002
2021-04-07,16:23:05.273000,-0.041109,0.00038641,0.010905,0.013007,0.01378
2021-04-07,16:23:05.275000,-0.040991,0.0005946,0.011095,0.013123,0.013931
2021-04-07,16:23:05.277000,-0.040736,0.00091981,0.011269,0.013207,0.014019
2021-04-07,16:23:05.279000,-0.040275,0.00096156,0.011179999999999999,0.013038999999999999,0.013829
2021-04-07,16:23:05.281000,-0.040027999999999994,0.00077743,0.011035,0.012825999999999999,0.013666999999999999
2021-04-07,16:23:05.283000,-0.039993,0.00068685,0.010969,0.012756,0.013619999999999998
2021-04-07,16:23:05.285000,-0.040036,0.00065758,0.010894,0.012768999999999999,0.013588999999999999
2021-04-07,16:23:05.287000,-0.040202999999999996,0.00063268,0.010843,0.012825999999999999,0.01365
2021-04-07,16:23:05.289000,-0.040522,0.00067924,0.010878,0.01295,0.013815000000000001
2021-04-07,16:23:05.291000,-0.040928,0.00078412,0.010954,0.013116999999999998,0.014001
2021-04-07,16:23:05.293000,-0.041177,0.0007885,0.010946,0.013161,0.01408
2021-04-07,16:23:05.295000,-0.041325,0.0008272,0.010999,0.01317,0.014156
2021-04-07,16:23:05.297000,-0.041458999999999996,0.00084284,0.01107,0.013144,0.014197
2021-04-07,16:23:05.299000,-0.041471,0.00047798,0.010856000000000001,0.012844,0.013956
2021-04-07,16:23:05.301000,-0.04133,0.00020469,0.010651,0.012598,0.013727000000000001
2021-04-07,16:23:05.303000,-0.041257,0.00020542,0.010617,0.012584999999999999,0.013696999999999999
2021-04-07,16:23:05.305000,-0.041447000000000005,0.00010914,0.010541,0.012586,0.013701
2021-04-07,16:23:05.307000,-0.041486,0.00023196,0.010522,0.012669,0.0138
2021-04-07,16:23:05.309000,-0.041198,0.00055917,0.010548,0.012752,0.013908000000000002
2021-04-07,16:23:05.311000,-0.0406,0.0010025000000000001,0.010598999999999999,0.012818000000000001,0.014005000000000002
2021-04-07,16:23:05.313000,-0.03977,0.0015872,0.010662,0.012913999999999998,0.014130000000000002
2021-04-07,16:23:05.315000,-0.039344,0.00158,0.010496,0.012722,0.013975
2021-04-07,16:23:05.317000,-0.039208,0.00098913,0.010153,0.012258,0.01354
2021-04-07,16:23:05.319000,-0.038877999999999996,0.00052843,0.0098181,0.011802,0.013118000000000001
2021-04-07,16:23:05.321000,-0.038432999999999995,0.00033004,0.009568799999999999,0.011423,0.012792
2021-04-07,16:23:05.323000,-0.037801,0.00042654,0.0094649,0.01124,0.012681
2021-04-07,16:23:05.325000,-0.036836,0.0010011,0.0095081,0.011295999999999999,0.012815
2021-04-07,16:23:05.327000,-0.035908999999999996,0.0017331,0.0095943,0.011392,0.012943000000000001
2021-04-07,16:23:05.329000,-0.035717,0.0017101,0.0094126,0.011314,0.012844999999999999
2021-04-07,16:23:05.331000,-0.036177999999999995,0.0009574999999999999,0.008986399999999999,0.011051,0.012543
2021-04-07,16:23:05.333000,-0.036538,0.00033185,0.0085895,0.010765,0.01218
2021-04-07,16:23:05.335000,-0.036331,1.027e-05,0.0082333,0.010544,0.011862000000000001
2021-04-07,16:23:05.337000,-0.035443,-1.9655e-05,0.0079797,0.010265,0.01157
2021-04-07,16:23:05.339000,-0.034148000000000005,0.00015694,0.007743899999999999,0.0098839,0.011239
2021-04-07,16:23:05.341000,-0.032889999999999996,0.00028104,0.007412,0.0095535,0.010935
2021-04-07,16:23:05.343000,-0.031762,0.00043593,0.0071692,0.0093,0.0107
2021-04-07,16:23:05.345000,-0.030804,0.00060174,0.0069759,0.009067299999999999,0.010479
2021-04-07,16:23:05.347000,-0.030198000000000003,0.00078631,0.0067936,0.0089521,0.010374
2021-04-07,16:23:05.349000,-0.029688,0.0011235,0.006727299999999999,0.0089765,0.010422
2021-04-07,16:23:05.351000,-0.02914,0.0012751,0.006551,0.0088851,0.010341
2021-04-07,16:23:05.353000,-0.028848000000000002,0.0010429,0.006220399999999999,0.0086014,0.010062
2021-04-07,16:23:05.355000,-0.028555,0.00069789,0.0059116,0.008285700000000002,0.0097654
2021-04-07,16:23:05.357000,-0.027819999999999998,0.00047872,0.0055864,0.0079188,0.009422499999999999
2021-04-07,16:23:05.359000,-0.026694,0.00060334,0.005334,0.007570100000000001,0.0091065
2021-04-07,16:23:05.361000,-0.025332,0.00098734,0.0051033,0.0073153,0.0089057
2021-04-07,16:23:05.363000,-0.023997,0.0012605000000000001,0.0047542999999999995,0.0070241,0.008683100000000001
2021-04-07,16:23:05.365000,-0.023099,0.0012485,0.0043619999999999996,0.006626100000000001,0.0083258
2021-04-07,16:23:05.367000,-0.022658,0.00088576,0.0039089,0.006175899999999999,0.007869899999999999
2021-04-07,16:23:05.369000,-0.022394,0.00033099,0.0034625999999999997,0.0057807,0.0074843
2021-04-07,16:23:05.371000,-0.021981999999999998,-4.4929e-06,0.003072,0.0054457,0.0071795
2021-04-07,16:23:05.373000,-0.021207,3.2283e-05,0.0027506,0.0051875,0.006917399999999999
2021-04-07,16:23:05.375000,-0.020197,0.00018904,0.0025194,0.0049529,0.006698999999999999
2021-04-07,16:23:05.377000,-0.0192,0.00023479,0.0022305999999999997,0.0046209,0.0064112
2021-04-07,16:23:05.379000,-0.018394,0.00024972,0.0019267,0.004285,0.0061067
2021-04-07,16:23:05.381000,-0.017655,0.00029735,0.0016843,0.0039873,0.0058708
2021-04-07,16:23:05.383000,-0.016916,0.00032362,0.0014458000000000001,0.0037421999999999998,0.0056671000000000004
2021-04-07,16:23:05.385000,-0.016373,0.00038644,0.0012487,0.003597,0.0055317
2021-04-07,16:23:05.387000,-0.015998,0.00048407,0.0011258,0.0034793,0.0054724
2021-04-07,16:23:05.389000,-0.015659,0.0005456,0.0010417999999999998,0.0033703,0.0054188000000000005
2021-04-07,16:23:05.391000,-0.015290999999999999,0.00058111,0.00096868,0.0032516,0.0053338000000000005
2021-04-07,16:23:05.393000,-0.01495,0.00058343,0.00088186,0.0030694000000000003,0.0051915
2021-04-07,16:23:05.395000,-0.014441999999999998,0.00061988,0.0007763999999999999,0.0028585,0.005015100000000001
2021-04-07,16:23:05.397000,-0.013599000000000002,0.00076575,0.0007221,0.0026285,0.0048592
2021-04-07,16:23:05.399000,-0.012781,0.00094081,0.00067594,0.0023940999999999997,0.0047066
2021-04-07,16:23:05.401000,-0.012125,0.0010539000000000002,0.00056062,0.0022180999999999998,0.0045677
2021-04-07,16:23:05.403000,-0.011816,0.00090718,0.00038901,0.0019996,0.0043971
2021-04-07,16:23:05.405000,-0.011955,0.00052461,0.00014642,0.0017345,0.004176399999999999
2021-04-07,16:23:05.407000,-0.012026,0.00034277,-4.8373e-05,0.0015877,0.0040717
2021-04-07,16:23:05.409000,-0.011958,0.00034233,-0.00017834,0.0014937000000000001,0.0040603
2021-04-07,16:23:05.411000,-0.011881999999999998,0.00029234,-0.00038044,0.0013824000000000002,0.0039975
2021-04-07,16:23:05.413000,-0.011611,0.00030484,-0.00058164,0.0012859000000000002,0.0039055999999999995
2021-04-07,16:23:05.415000,-0.011174,0.00035341,-0.00070869,0.001187,0.0037996
2021-04-07,16:23:05.417000,-0.010596,0.00040941,-0.00079787,0.0010715,0.0036534999999999996
2021-04-07,16:23:05.419000,-0.009955799999999999,0.00050202,-0.00091946,0.00092592,0.0034942
2021-04-07,16:23:05.421000,-0.009412299999999998,0.00059216,-0.001083,0.00082432,0.0033806999999999995
2021-04-07,16:23:05.423000,-0.0090277,0.00065778,-0.0012087,0.0007831,0.0033060000000000003
2021-04-07,16:23:05.425000,-0.0088912,0.00065004,-0.0013207000000000002,0.00076389,0.0032565
2021-04-07,16:23:05.427000,-0.0088637,0.00067182,-0.0014295999999999998,0.0008113999999999999,0.003268
2021-04-07,16:23:05.429000,-0.0088554,0.00068995,-0.001546,0.00085089,0.0032713
2021-04-07,16:23:05.431000,-0.008739499999999999,0.00071292,-0.0016595,0.00084942,0.0032575000000000004
2021-04-07,16:23:05.433000,-0.008365899999999999,0.00089642,-0.0017617999999999998,0.00084069,0.0032694000000000004
2021-04-07,16:23:05.435000,-0.0079787,0.00094505,-0.0019622,0.00072266,0.0031674
2021-04-07,16:23:05.437000,-0.007699600000000001,0.00072003,-0.0021553,0.00049592,0.0029327
2021-04-07,16:23:05.439000,-0.007485600000000001,0.00050919,-0.002374,0.00027005,0.0027164999999999997
2021-04-07,16:23:05.441000,-0.0071498,0.00050454,-0.0027218000000000003,0.00012692,0.0025892
2021-04-07,16:23:05.443000,-0.0067047,0.00063554,-0.0029812,7.445100000000001e-05,0.0025425
2021-04-07,16:23:05.445000,-0.0064637,0.00076314,-0.0032,8.3983e-05,0.0025635000000000002
2021-04-07,16:23:05.447000,-0.0063311999999999995,0.00094084,-0.0034035,0.00017195,0.0026424
2021-04-07,16:23:05.449000,-0.0063537,0.00094876,-0.003565,0.00022303,0.0026619
2021-04-07,16:23:05.451000,-0.0066005,0.00065358,-0.0038951999999999997,0.00016063,0.0025691999999999998
2021-04-07,16:23:05.453000,-0.006758,0.00037636,-0.004248600000000001,4.5409e-05,0.0024258
2021-04-07,16:23:05.455000,-0.0066216999999999995,0.00023567,-0.004361100000000001,-0.00010355,0.0022603000000000002
2021-04-07,16:23:05.457000,-0.006148,0.00026126,-0.0042564,-0.00020194,0.0021344000000000003
2021-04-07,16:23:05.459000,-0.0055837,0.00039989,-0.0041221,-0.00024924,0.0020448
2021-04-07,16:23:05.461000,-0.005146199999999999,0.00048665,-0.004011,-0.00031239999999999995,0.0019660999999999997
2021-04-07,16:23:05.463000,-0.004864,0.00054508,-0.0038308,-0.00033329,0.0019320999999999997
2021-04-07,16:23:05.465000,-0.004800199999999999,0.00058056,-0.0037188000000000004,-0.00030538,0.0019328
2021-04-07,16:23:05.467000,-0.0048468999999999995,0.00057991,-0.0036917,-0.00025588,0.0019619
2021-04-07,16:23:05.469000,-0.0048698,0.00062583,-0.0035544000000000005,-0.00017762,0.0020167
2021-04-07,16:23:05.471000,-0.004797399999999999,0.00074054,-0.0033466,-0.00011153,0.0020568
2021-04-07,16:23:05.473000,-0.0046008,0.00081571,-0.003201,-0.00010227,0.0020345
2021-04-07,16:23:05.475000,-0.004381899999999999,0.00075068,-0.0031037,-0.00017255,0.0019341999999999999
2021-04-07,16:23:05.477000,-0.0041614,0.00057803,-0.0030225,-0.00032528,0.0017585
2021-04-07,16:23:05.479000,-0.0038885999999999994,0.00042681,-0.0029408,-0.00048375,0.0015606
2021-04-07,16:23:05.481000,-0.0036460999999999998,0.00039283,-0.0027471,-0.00056339,0.0014487
2021-04-07,16:23:05.483000,-0.0035106,0.00042835,-0.0024829,-0.00057615,0.0014246999999999999
2021-04-07,16:23:05.485000,-0.0034597,0.00046071,-0.0022633,-0.00055788,0.0014330999999999999
2021-04-07,16:23:05.487000,-0.0035134999999999997,0.00048561,-0.0020621,-0.00052075,0.0014684000000000001
2021-04-07,16:23:05.489000,-0.0036049,0.00050888,-0.0019172999999999998,-0.00047765,0.0015033
2021-04-07,16:23:05.491000,-0.0035728,0.0005348,-0.001791,-0.00045003,0.0015122999999999998
2021-04-07,16:23:05.493000,-0.0034341000000000003,0.00055071,-0.0016552,-0.00046641,0.0014861
2021-04-07,16:23:05.495000,-0.0031548,0.00055854,-0.0015572000000000001,-0.00054059,0.0013919
2021-04-07,16:23:05.497000,-0.0027249,0.00055817,-0.0014312,-0.00065754,0.0012455
2021-04-07,16:23:05.499000,-0.002405,0.00052334,-0.0013164000000000001,-0.00077908,0.0011033
2021-04-07,16:23:05.501000,-0.0021924,0.00048663,-0.0012460000000000001,-0.00086667,0.0009855999999999999
2021-04-07,16:23:05.503000,-0.0020171,0.0004761,-0.0011722999999999998,-0.0008859,0.00092912
2021-04-07,16:23:05.505000,-0.0020161,0.00049325,-0.0011059000000000002,-0.00083757,0.00095582
2021-04-07,16:23:05.507000,-0.0020647,0.00057621,-0.0010094,-0.0007631000000000001,0.0010183
2021-04-07,16:23:05.509000,-0.0020510999999999997,0.00072248,-0.00086593,-0.00066132,0.0011135
2021-04-07,16:23:05.511000,-0.0019820999999999997,0.00087713,-0.0007314,-0.0005673999999999999,0.0011974
2021-04-07,16:23:05.513000,-0.0018422999999999998,0.00087593,-0.00069323,-0.00059484,0.0011299
2021-04-07,16:23:05.515000,-0.0016724,0.00069637,-0.00073772,-0.00071672,0.00094986
2021-04-07,16:23:05.517000,-0.0013463,0.00062802,-0.0007384,-0.0008337999999999999,0.00078329
2021-04-07,16:23:05.519000,-0.00093083,0.00061422,-0.00072163,-0.00096053,0.00061049
2021-04-07,16:23:05.521000,-0.00068135,0.00047240000000000004,-0.00074048,-0.0010622,0.00045983
2021-04-07,16:23:05.523000,-0.0005740000000000001,0.00039481,-0.00074836,-0.001082,0.00039378
2021-04-07,16:23:05.525000,-0.00061994,0.00035168,-0.0007746000000000001,-0.0010745,0.00035981
2021-04-07,16:23:05.527000,-0.00072127,0.00031334,-0.00078837,-0.0010262000000000001,0.00037549
2021-04-07,16:23:05.529000,-0.00066754,0.00044671,-0.0007304,-0.00090335,0.00046324
2021-04-07,16:23:05.531000,-0.00057808,0.00056766,-0.00066406,-0.00082676,0.00048792
2021-04-07,16:23:05.533000,-0.00049804,0.0005042,-0.00060856,-0.00086061,0.00040918
2021-04-07,16:23:05.535000,-0.00035126,0.00035256,-0.00057828,-0.00093092,0.00027053
2021-04-07,16:23:05.537000,-9.5186e-05,0.00026269,-0.00055187,-0.0010031,0.00010763
2021-04-07,16:23:05.539000,0.00030797,0.00029828,-0.00046379,-0.0010573,1.0446e-05
2021-04-07,16:23:05.541000,0.00059282,0.00031029,-0.00040274,-0.0010742,-5.6176000000000006e-05
2021-04-07,16:23:05.543000,0.00066044,0.00030294,-0.00038039,-0.0010525,-0.00010483
2021-04-07,16:23:05.545000,0.00069495,0.00038013,-0.0003217,-0.00095609,-5.5778999999999996e-05
2021-04-07,16:23:05.547000,0.00060728,0.00044401,-0.00028218,-0.00081575,3.5113e-05
2021-04-07,16:23:05.549000,0.00044712,0.00048094,-0.00027174,-0.00071581,9.5067e-05
2021-04-07,16:23:05.551000,0.00040668,0.00048351,-0.00028247,-0.00066581,0.00010335
2021-04-07,16:23:05.553000,0.00044239999999999997,0.00041879,-0.00033285,-0.00067134,6.1308e-05
2021-04-07,16:23:05.555000,0.0006292000000000001,0.00038132,-0.00037036,-0.00073978,-3.0206999999999997e-05
2021-04-07,16:23:05.557000,0.00095931,0.00036641,-0.00036855,-0.00081839,-0.00015531
2021-04-07,16:23:05.559000,0.0012082,0.00034458,-0.00032855,-0.00088709,-0.00025852
2021-04-07,16:23:05.561000,0.0013800999999999998,0.00034538,-0.00027722,-0.00095085,-0.00033694
2021-04-07,16:23:05.563000,0.0014828,0.00034335,-0.00025702,-0.00095162,-0.00036053
2021-04-07,16:23:05.565000,0.0013912,0.00032616,-0.00023477,-0.00088415,-0.00032018
2021-04-07,16:23:05.567000,0.0012077,0.00032042,-0.00019844,-0.00081627,-0.00027516
2021-04-07,16:23:05.569000,0.0010967000000000001,0.00035461,-0.00016998,-0.00074636,-0.0002114
2021-04-07,16:23:05.571000,0.0010856,0.00043291,-0.0001347,-0.00068398,-0.00015643
2021-04-07,16:23:05.573000,0.0013008,0.00055313,-8.5909e-05,-0.00067911,-0.00015759999999999998
2021-04-07,16:23:05.575000,0.0016695,0.00064367,-3.4172e-05,-0.00072964,-0.00020496
2021-04-07,16:23:05.577000,0.0019003,0.00060321,-4.5073999999999996e-05,-0.00085621,-0.00033651
2021-04-07,16:23:05.579000,0.0020402999999999997,0.00045157,-0.00013181,-0.0010334,-0.00051509
2021-04-07,16:23:05.581000,0.0021225000000000003,0.00026883,-0.00020386,-0.0011472000000000001,-0.00063712
2021-04-07,16:23:05.583000,0.002077,0.00017959,-0.00026737,-0.0011697,-0.00067697
2021-04-07,16:23:05.585000,0.0019890999999999997,0.00020522,-0.00033673,-0.0011364,-0.00063738
2021-04-07,16:23:05.587000,0.0018695999999999997,0.00025636,-0.00036445,-0.0010625,-0.00054936
2021-04-07,16:23:05.589000,0.0017187,0.00029196,-0.00037738,-0.00098476,-0.00047702
2021-04-07,16:23:05.591000,0.0015978,0.00026403,-0.00039775,-0.00095929,-0.00045404
2021-04-07,16:23:05.593000,0.0018195,0.0004025,-0.00037356,-0.00094029,-0.00042362
2021-04-07,16:23:05.595000,0.0025053000000000002,0.00084702,-0.00028883,-0.00087188,-0.0003663
2021-04-07,16:23:05.597000,0.0031103000000000003,0.0011496,-0.00022909,-0.00088206,-0.00039062
2021-04-07,16:23:05.599000,0.0032597,0.00099824,-0.00027739999999999997,-0.0010463,-0.0005302000000000001
2021-04-07,16:23:05.601000,0.0029628,0.00049581,-0.00045725,-0.0012626,-0.00074539
2021-04-07,16:23:05.603000,0.0024666999999999996,-4.6272e-06,-0.00068728,-0.0013855,-0.00092737
2021-04-07,16:23:05.605000,0.0021582,-0.00019398,-0.0008493,-0.0013423,-0.00093811
2021-04-07,16:23:05.607000,0.0019947,-0.00017362,-0.00093915,-0.0012327,-0.00084923
2021-04-07,16:23:05.609000,0.0018727,-5.9998000000000004e-05,-0.00095305,-0.0011252,-0.00075243
2021-04-07,16:23:05.611000,0.0019205,7.108800000000001e-05,-0.00096941,-0.0010421,-0.0006771
2021-04-07,16:23:05.613000,0.0020881,0.00016322,-0.0010477,-0.0010302999999999998,-0.00067678
2021-04-07,16:23:05.615000,0.0023698,0.00024796,-0.0010567999999999999,-0.0010628,-0.00072431
2021-04-07,16:23:05.617000,0.00281,0.00030223,-0.00099765,-0.001134,-0.00080741
2021-04-07,16:23:05.619000,0.0032861999999999995,0.00059003,-0.00086794,-0.0011380999999999997,-0.0008210000000000001
2021-04-07,16:23:05.621000,0.0038810000000000003,0.0011722999999999998,-0.00064082,-0.0009945,-0.00067412
2021-04-07,16:23:05.623000,0.004354600000000001,0.0014712,-0.00051089,-0.00090374,-0.00059072
2021-04-07,16:23:05.625000,0.0039275,0.0010992,-0.00057546,-0.00097858,-0.00069079
2021-04-07,16:23:05.627000,0.0028383,0.00029915,-0.00071408,-0.0011485999999999998,-0.00085066
2021-04-07,16:23:05.629000,0.0020539,-0.00033254,-0.00075277,-0.0012909,-0.0009816
2021-04-07,16:23:05.631000,0.0017794,-0.00051391,-0.00062496,-0.0012985,-0.001021
2021-04-07,16:23:05.633000,0.0019518,-0.0004082,-0.00043933,-0.0012747,-0.0010093
2021-04-07,16:23:05.635000,0.0024138000000000002,-0.00021086,-0.00029,-0.0013232,-0.0010308
2021-04-07,16:23:05.637000,0.0028001,-7.3346e-05,-0.0001473,-0.0013871999999999999,-0.0010807
2021-04-07,16:23:05.639000,0.0031419,1.5104000000000001e-05,1.2268e-05,-0.0014395999999999999,-0.0011432
2021-04-07,16:23:05.641000,0.0034338000000000003,8.8459e-05,0.00013358,-0.0014751,-0.0011752000000000002
2021-04-07,16:23:05.643000,0.0034738,0.00011687,0.00024944,-0.0014532,-0.0011461
2021-04-07,16:23:05.645000,0.0033485,0.00014768,0.00039608,-0.0013908,-0.0010954
2021-04-07,16:23:05.647000,0.0031579,0.00016003,0.00050519,-0.0013197,-0.0010299
2021-04-07,16:23:05.649000,0.0029460000000000003,0.00015063,0.00057247,-0.0012399000000000002,-0.0009544999999999999
2021-04-07,16:23:05.651000,0.0028480999999999997,0.00016056,0.00061316,-0.0011999,-0.00092807
2021-04-07,16:23:05.653000,0.0029288,0.00015435,0.00065006,-0.0012222000000000001,-0.00096257
2021-04-07,16:23:05.655000,0.003154,0.0001506,0.00070915,-0.0012901,-0.0010404000000000001
2021-04-07,16:23:05.657000,0.0034436999999999996,0.00016434,0.00075709,-0.0013932999999999999,-0.0011462
2021-04-07,16:23:05.659000,0.0037384000000000002,0.00017618,0.00077284,-0.0014658,-0.0012263
2021-04-07,16:23:05.661000,0.0039369999999999995,0.00020644,0.0007208,-0.0014861,-0.0012604
2021-04-07,16:23:05.663000,0.0039333,0.00022809,0.00061502,-0.0014667999999999999,-0.0012545
2021-04-07,16:23:05.665000,0.0038211999999999994,0.00025321,0.00055189,-0.0013843,-0.0011856
2021-04-07,16:23:05.667000,0.0036473,0.0003016,0.00052251,-0.0012728,-0.0010779000000000001
2021-04-07,16:23:05.669000,0.0034027999999999997,0.00030351,0.00044992,-0.0011939,-0.0010121000000000002
2021-04-07,16:23:05.671000,0.0032499000000000004,0.00025377,0.00037674,-0.001172,-0.0010101
2021-04-07,16:23:05.673000,0.0032381,0.00016389,0.00033429,-0.001207,-0.0010523
2021-04-07,16:23:05.675000,0.0033679,7.5815e-05,0.00026543,-0.0012982,-0.0011529
2021-04-07,16:23:05.677000,0.0036609000000000004,7.3282e-05,0.00017743,-0.0014069,-0.001261
2021-04-07,16:23:05.679000,0.0039411,9.6112e-05,7.9824e-05,-0.0014772000000000001,-0.0013323
2021-04-07,16:23:05.681000,0.0040837,0.00010283,-2.0347e-05,-0.001518,-0.0013905999999999999
2021-04-07,16:23:05.683000,0.004113800000000001,0.00015953,-0.00012435,-0.0014782999999999999,-0.0013584
2021-04-07,16:23:05.685000,0.0040638,0.00030123,-0.00023151,-0.0013280999999999998,-0.0012225
2021-04-07,16:23:05.687000,0.003948,0.00044561,-0.00028931,-0.0011917,-0.0011105
2021-04-07,16:23:05.689000,0.0037358000000000005,0.00042328,-0.00040651,-0.0011136,-0.0010559
2021-04-07,16:23:05.691000,0.0034563000000000003,0.00023308,-0.00066915,-0.0010942999999999999,-0.0010705
2021-04-07,16:23:05.693000,0.0033146,1.6415999999999999e-06,-0.00094997,-0.0011724,-0.0011832000000000001
2021-04-07,16:23:05.695000,0.0034783,-0.00012311,-0.0011624,-0.0012711999999999999,-0.0013199000000000002
2021-04-07,16:23:05.697000,0.0037714,-8.9425e-05,-0.0013036,-0.0013318,-0.0014154999999999999
2021-04-07,16:23:05.699000,0.0040393,-4.1847e-05,-0.0013817999999999999,-0.0013792,-0.0014885
2021-04-07,16:23:05.701000,0.0042832999999999994,-6.8486e-06,-0.0014465,-0.0013877000000000002,-0.0015242
2021-04-07,16:23:05.703000,0.004294300000000001,1.5209000000000001e-05,-0.0015654999999999998,-0.0013355,-0.0014959
2021-04-07,16:23:05.705000,0.0042379,0.00015873,-0.0016974,-0.0012089,-0.0014001
2021-04-07,16:23:05.707000,0.0045003,0.00064063,-0.0017385999999999999,-0.00095,-0.001174
2021-04-07,16:23:05.709000,0.0047737,0.0011136,-0.0017165,-0.00065905,-0.00091875
2021-04-07,16:23:05.711000,0.0047356,0.0011862,-0.0018869,-0.00058344,-0.0009023999999999999
2021-04-07,16:23:05.713000,0.0043764,0.00073436,-0.0022998000000000003,-0.00075715,-0.0011305999999999998
2021-04-07,16:23:05.715000,0.0038569000000000003,-5.0082e-05,-0.0025443,-0.0010266,-0.0014412000000000001
2021-04-07,16:23:05.717000,0.003718,-0.00048153,-0.0025694000000000003,-0.0012274,-0.0016867999999999998
2021-04-07,16:23:05.719000,0.0039941,-0.00046002,-0.0026466,-0.0012634,-0.001755
2021-04-07,16:23:05.721000,0.0041945,-0.00038762,-0.0027339,-0.0012198,-0.0017390999999999997
2021-04-07,16:23:05.723000,0.0042083,-0.0003054,-0.0027506,-0.0011515,-0.001707
2021-04-07,16:23:05.725000,0.0041271,-0.00019929,-0.0026675,-0.0010115,-0.0016010999999999998
2021-04-07,16:23:05.727000,0.0039832999999999995,-9.3248e-05,-0.0025383000000000003,-0.00084662,-0.0014694
2021-04-07,16:23:05.729000,0.0038143,-2.3913000000000003e-05,-0.0024495999999999997,-0.00072943,-0.0013844
2021-04-07,16:23:05.731000,0.0037583,1.596e-05,-0.0023316,-0.00066034,-0.0013400999999999999
2021-04-07,16:23:05.733000,0.0038948999999999998,8.1641e-05,-0.002193,-0.000633,-0.001335
2021-04-07,16:23:05.735000,0.004194399999999999,0.00016784,-0.0020614,-0.00065375,-0.0013800000000000002
2021-04-07,16:23:05.737000,0.0046618,0.00035144,-0.0019105999999999997,-0.0006681,-0.0014196
2021-04-07,16:23:05.739000,0.0050111999999999995,0.00048498,-0.0018064,-0.00067193,-0.0014525
2021-04-07,16:23:05.741000,0.0050146999999999995,0.00038691,-0.001768,-0.00072123,-0.0015178
2021-04-07,16:23:05.743000,0.004814199999999999,0.00022596,-0.0017814,-0.00074243,-0.0015603
2021-04-07,16:23:05.745000,0.0044134,4.144e-05,-0.0018461999999999999,-0.000712,-0.0015600999999999998
2021-04-07,16:23:05.747000,0.0039732,-0.00012723,-0.0018616,-0.00066737,-0.0015127
2021-04-07,16:23:05.749000,0.0037875,-0.00011599999999999999,-0.0017733,-0.00058341,-0.0014221
2021-04-07,16:23:05.751000,0.0037488,-3.5818e-05,-0.0016542000000000002,-0.00053863,-0.0013583
2021-04-07,16:23:05.753000,0.0038418,-9.145499999999999e-06,-0.0015607000000000002,-0.00056915,-0.0013774000000000002
2021-04-07,16:23:05.755000,0.004142100000000001,2.111e-05,-0.0015000999999999999,-0.00065422,-0.0014568
2021-04-07,16:23:05.757000,0.0044104999999999995,5.3994e-05,-0.0014564,-0.0007625,-0.0015314
2021-04-07,16:23:05.759000,0.0046056000000000005,7.9972e-05,-0.00144,-0.00080376,-0.0016045999999999999
2021-04-07,16:23:05.761000,0.0048766999999999994,0.00022758,-0.0014145,-0.00085091,-0.0015907999999999999
2021-04-07,16:23:05.763000,0.0050482,0.00048728,-0.0013448,-0.0008208,-0.0014392
2021-04-07,16:23:05.765000,0.0048819,0.00058617,-0.0013284,-0.00062314,-0.0013378
2021-04-07,16:23:05.767000,0.0044702,0.00043816,-0.0013955999999999999,-0.00055394,-0.0013097999999999999
2021-04-07,16:23:05.769000,0.0040330999999999995,0.00020554,-0.001504,-0.00061766,-0.0012936
2021-04-07,16:23:05.771000,0.0037018999999999997,-2.0536999999999997e-05,-0.0015981,-0.00066399,-0.0013535
2021-04-07,16:23:05.773000,0.0036686,-0.00014351,-0.0016169,-0.00075649,-0.0014255000000000001
2021-04-07,16:23:05.775000,0.0039585,-8.8002e-05,-0.001578,-0.00084321,-0.0014776
2021-04-07,16:23:05.777000,0.004259000000000001,-4.5029e-05,-0.0014649,-0.00092702,-0.001573
2021-04-07,16:23:05.779000,0.0044853,-6.3567e-05,-0.0012968,-0.0010002000000000001,-0.001638
2021-04-07,16:23:05.781000,0.0046599,8.7086e-06,-0.001144,-0.00099144,-0.0016302
2021-04-07,16:23:05.783000,0.0045743,2.5226999999999998e-05,-0.0010107999999999998,-0.00096397,-0.0016079
2021-04-07,16:23:05.785000,0.0044273,0.00010112,-0.00085393,-0.00086211,-0.0015011
2021-04-07,16:23:05.787000,0.0045496,0.00050258,-0.00062919,-0.00063015,-0.0012664999999999998
2021-04-07,16:23:05.789000,0.0047424,0.00090519,-0.00040858,-0.00043019,-0.0010655999999999999
2021-04-07,16:23:05.791000,0.0048193,0.0010485999999999998,-0.00026486,-0.00035562,-0.00099491
2021-04-07,16:23:05.793000,0.004751699999999999,0.00090398,-0.00020767,-0.00041306,-0.0010647999999999999
2021-04-07,16:23:05.795000,0.0045912,0.00049865,-0.00020784,-0.00062211,-0.0012814999999999999
2021-04-07,16:23:05.797000,0.004514,0.00011039,-0.00015351,-0.00086291,-0.0015101
2021-04-07,16:23:05.799000,0.0044652,-0.00014280000000000003,-5.2993e-05,-0.0010047,-0.0016569000000000002
2021-04-07,16:23:05.801000,0.0043755,-0.00029261,3.8372e-05,-0.0010769,-0.0017396
2021-04-07,16:23:05.803000,0.0042931,-0.00030548,0.00020340000000000004,-0.0010595000000000001,-0.0017117
2021-04-07,16:23:05.805000,0.0041231,-0.00023449,0.00041586,-0.00092938,-0.0015935
2021-04-07,16:23:05.807000,0.0038921999999999997,-0.00016022,0.00057457,-0.00080949,-0.0014815999999999998
2021-04-07,16:23:05.809000,0.0037687,-8.6775e-05,0.00072854,-0.00072677,-0.0013864
2021-04-07,16:23:05.811000,0.0037514000000000002,-5.682899999999999e-06,0.00090222,-0.00065425,-0.0013284
2021-04-07,16:23:05.813000,0.0039082,7.0115e-05,0.0010764000000000001,-0.00066189,-0.0013463
2021-04-07,16:23:05.815000,0.0042658999999999996,0.00014736,0.0012634,-0.00074171,-0.0014068
2021-04-07,16:23:05.817000,0.0045523000000000004,0.00019738,0.0014617,-0.00082948,-0.0014767
2021-04-07,16:23:05.819000,0.0047912,0.00026267,0.0016777,-0.00088678,-0.001518
2021-04-07,16:23:05.821000,0.0050424,0.00038909,0.0018581,-0.000893,-0.0014991
2021-04-07,16:23:05.823000,0.0049541,0.00040265,0.0019878,-0.00087276,-0.001458
2021-04-07,16:23:05.825000,0.0045598,0.00027843,0.0020954,-0.00083954,-0.0014182
2021-04-07,16:23:05.827000,0.0041981,0.00017726,0.0021604,-0.00079531,-0.0013683
2021-04-07,16:23:05.829000,0.0038924999999999997,7.4793e-05,0.0022185,-0.00076956,-0.0013219000000000002
2021-04-07,16:23:05.831000,0.0037457000000000002,1.7734e-05,0.002285,-0.00077494,-0.0013097000000000002
2021-04-07,16:23:05.833000,0.0038844,5.3534e-05,0.0023415,-0.00081553,-0.001351
2021-04-07,16:23:05.835000,0.0041088,4.1287e-05,0.0024254999999999997,-0.00089538,-0.0014248
2021-04-07,16:23:05.837000,0.0045099,0.00019078,0.0025943000000000003,-0.00092615,-0.0014456
2021-04-07,16:23:05.839000,0.0051617,0.00062775,0.0028232,-0.00085638,-0.0013784000000000001
2021-04-07,16:23:05.841000,0.005590100000000001,0.00097842,0.0030105,-0.00075747,-0.001288
2021-04-07,16:23:05.843000,0.0055366999999999994,0.0010378,0.0031079000000000002,-0.00068776,-0.0012279
2021-04-07,16:23:05.845000,0.0048931,0.00062272,0.0030406999999999995,-0.0007556,-0.0012857
2021-04-07,16:23:05.847000,0.0039414,-7.7136e-05,0.0028563000000000004,-0.00090847,-0.0014324000000000001
2021-04-07,16:23:05.849000,0.0034519,-0.00038642,0.0027978,-0.00094573,-0.00148
2021-04-07,16:23:05.851000,0.0034395000000000003,-0.00034839,0.0028669,-0.00093382,-0.0014504000000000001
2021-04-07,16:23:05.853000,0.0036326,-0.00025913,0.0029446999999999997,-0.00094868,-0.0014588
2021-04-07,16:23:05.855000,0.0040273,-0.00011292,0.0030464000000000003,-0.0009819,-0.0014962999999999999
2021-04-07,16:23:05.857000,0.004407100000000001,-1.8379e-05,0.003146,-0.0010581,-0.0015436
2021-04-07,16:23:05.859000,0.0046517,4.5503e-05,0.0032205999999999997,-0.0010981,-0.0015831
2021-04-07,16:23:05.861000,0.0047404,9.7579e-05,0.0032744,-0.0010949999999999998,-0.0015986
2021-04-07,16:23:05.863000,0.0046623,0.00010797,0.0033085000000000002,-0.0010548,-0.0015573
2021-04-07,16:23:05.865000,0.0044488999999999996,0.00013191,0.003327,-0.00094686,-0.0014564
2021-04-07,16:23:05.867000,0.004144,0.00011597,0.0033075,-0.00085558,-0.0013622999999999999
2021-04-07,16:23:05.869000,0.0039794,0.00013248,0.0032865000000000004,-0.0007919,-0.0012870999999999998
2021-04-07,16:23:05.871000,0.0040487,0.00027336,0.0033029000000000005,-0.00073239,-0.0012214
2021-04-07,16:23:05.873000,0.004286,0.00041502,0.0033420999999999998,-0.00073472,-0.0012116
2021-04-07,16:23:05.875000,0.0046122,0.00048428,0.0033916,-0.00079181,-0.0012715
2021-04-07,16:23:05.877000,0.0048362,0.00047352,0.0034171999999999996,-0.00087977,-0.0013633
2021-04-07,16:23:05.879000,0.0049195,0.0003795,0.0034053000000000004,-0.00098388,-0.0014528
2021-04-07,16:23:05.881000,0.004845,0.0002381,0.0033678000000000007,-0.001038,-0.0015054
2021-04-07,16:23:05.883000,0.0045608,9.332700000000001e-05,0.0033061999999999996,-0.0010317,-0.0015007999999999998
2021-04-07,16:23:05.885000,0.0041803000000000005,4.343999999999999e-06,0.0032402,-0.00099148,-0.0014436
2021-04-07,16:23:05.887000,0.0038518999999999997,-1.9674000000000002e-05,0.0031914,-0.00092255,-0.0013543
2021-04-07,16:23:05.889000,0.0036544000000000004,-1.4404000000000001e-05,0.0031631,-0.00085303,-0.0012638
2021-04-07,16:23:05.891000,0.0036045,7.600800000000001e-05,0.0031577,-0.00081,-0.0012085000000000002
2021-04-07,16:23:05.893000,0.0038536,0.00028758,0.0031962,-0.00081184,-0.0011945
2021-04-07,16:23:05.895000,0.004431,0.00057693,0.0033141,-0.00079815,-0.0011543
2021-04-07,16:23:05.897000,0.005058699999999999,0.00093959,0.0034490000000000002,-0.0007367000000000001,-0.001088
2021-04-07,16:23:05.899000,0.0053685,0.0010930999999999998,0.0034469,-0.00075449,-0.0011092
2021-04-07,16:23:05.901000,0.005037600000000001,0.00074443,0.0033006999999999997,-0.0008722999999999999,-0.0012289000000000002
2021-04-07,16:23:05.903000,0.004298,0.00018682,0.0030989,-0.00099689,-0.0013573
2021-04-07,16:23:05.905000,0.0036294000000000005,-0.00021734,0.0029041,-0.0010477,-0.0014035999999999999
2021-04-07,16:23:05.907000,0.0032154,-0.00033094,0.0028049,-0.00096789,-0.0013294000000000001
2021-04-07,16:23:05.909000,0.003082,-0.00023478,0.0027687,-0.00087143,-0.0012289999999999998
2021-04-07,16:23:05.911000,0.0030906999999999996,-0.00017411,0.0027327,-0.00084731,-0.0011882
2021-04-07,16:23:05.913000,0.0032329999999999998,-0.00013312,0.002722,-0.0008607999999999999,-0.0012147
2021-04-07,16:23:05.915000,0.0035993,-3.8195e-05,0.0027370999999999997,-0.0009147000000000001,-0.0012795
2021-04-07,16:23:05.917000,0.0041613,0.00020348,0.0028155999999999997,-0.00093013,-0.0012877000000000001
2021-04-07,16:23:05.919000,0.0047685,0.00063334,0.002912,-0.00084289,-0.0012055999999999998
2021-04-07,16:23:05.921000,0.0050839,0.00093969,0.0029075,-0.00073991,-0.0011055
2021-04-07,16:23:05.923000,0.0049412,0.00091523,0.0027898000000000003,-0.00069885,-0.0010749000000000002
2021-04-07,16:23:05.925000,0.0043459,0.00057154,0.0025831,-0.00070955,-0.0011171
2021-04-07,16:23:05.927000,0.0035716999999999997,0.00010752,0.0023643,-0.00072101,-0.0011583
2021-04-07,16:23:05.929000,0.003145,-0.00013725,0.0022219,-0.00072338,-0.0011768
2021-04-07,16:23:05.931000,0.0030698,-0.00017142,0.0021719,-0.00071742,-0.0011754
2021-04-07,16:23:05.933000,0.0031561999999999996,-0.00019792,0.0021282,-0.00073508,-0.0012149
2021-04-07,16:23:05.935000,0.0034353,-0.00021007,0.0020442,-0.0008038,-0.0013162
2021-04-07,16:23:05.937000,0.003742,-0.0001082,0.0020384,-0.00085144,-0.0013667999999999998
2021-04-07,16:23:05.939000,0.0040109,5.5867e-05,0.0020969,-0.00086344,-0.0013615
2021-04-07,16:23:05.941000,0.0042271,0.00018114,0.0021171999999999996,-0.00081626,-0.0013174
2021-04-07,16:23:05.943000,0.0041443999999999995,0.00026466,0.002102,-0.00070335,-0.001217
2021-04-07,16:23:05.945000,0.0038458,0.00029365,0.0020573,-0.00062246,-0.0011212
2021-04-07,16:23:05.947000,0.0035149,0.0002286,0.0019884,-0.00055235,-0.001046
2021-04-07,16:23:05.949000,0.0031199,7.286699999999999e-05,0.0018844999999999999,-0.00051902,-0.001017
2021-04-07,16:23:05.951000,0.002993,2.0988e-06,0.0017844999999999998,-0.00054367,-0.0010388
2021-04-07,16:23:05.953000,0.0032531,9.4559e-05,0.0017203,-0.0005515,-0.001057
2021-04-07,16:23:05.955000,0.0035124,0.00016992,0.0016851,-0.00061976,-0.0011027
2021-04-07,16:23:05.957000,0.0037562,0.00020569,0.0017067,-0.00072267,-0.0011712
2021-04-07,16:23:05.959000,0.003886,0.0001464,0.0016788,-0.00080241,-0.0012254000000000002
2021-04-07,16:23:05.961000,0.0038469999999999997,0.00011378,0.0016297,-0.0008347000000000002,-0.0012093
2021-04-07,16:23:05.963000,0.0040291,0.00047468,0.0017199000000000001,-0.00069336,-0.0010368
2021-04-07,16:23:05.965000,0.0040668,0.00079394,0.0017820999999999998,-0.00053239,-0.00083849
2021-04-07,16:23:05.967000,0.0035659,0.00060914,0.0016926999999999999,-0.00052034,-0.00077315
2021-04-07,16:23:05.969000,0.0029920000000000003,0.00025235,0.0015304000000000001,-0.00061933,-0.00084027
2021-04-07,16:23:05.971000,0.0026201,-8.4025e-05,0.0013476,-0.00079123,-0.00096943
2021-04-07,16:23:05.973000,0.0025523000000000004,-0.00028879,0.0012495,-0.00090701,-0.0010517
2021-04-07,16:23:05.975000,0.0028197,-0.00024978,0.0012329,-0.00098285,-0.0011104
2021-04-07,16:23:05.977000,0.0031595,-0.00015815,0.0012119000000000001,-0.0010822000000000002,-0.0011639
2021-04-07,16:23:05.979000,0.0033830999999999996,-8.3875e-05,0.0011887,-0.0011347000000000002,-0.0011659
2021-04-07,16:23:05.981000,0.0034446999999999998,2.0535e-05,0.0011734000000000002,-0.0011353,-0.0011342000000000001
2021-04-07,16:23:05.983000,0.0033220999999999997,7.1787e-05,0.0011288000000000001,-0.0010832,-0.0010503
2021-04-07,16:23:05.985000,0.0030678,0.00010024,0.0010317,-0.00099973,-0.00093021
2021-04-07,16:23:05.987000,0.0028796,0.00022286,0.00095728,-0.00088524,-0.00078584
2021-04-07,16:23:05.989000,0.0028103,0.00033932,0.00090578,-0.00078194,-0.00065393
2021-04-07,16:23:05.991000,0.0027590999999999996,0.00033528,0.00080626,-0.0008129,-0.00066124
2021-04-07,16:23:05.993000,0.0027653,0.00022334,0.00069199,-0.00092234,-0.00076706
2021-04-07,16:23:05.995000,0.0028751,8.5454e-05,0.00057564,-0.0010360999999999999,-0.0008681000000000001
2021-04-07,16:23:05.997000,0.0030186999999999996,-8.337999999999999e-06,0.00045689,-0.0011527999999999998,-0.00097446
2021-04-07,16:23:05.999000,0.003037,-0.00014627,0.00033179,-0.0012419,-0.0010737
2021-04-07,16:23:06.001000,0.0028529,-0.00031085,0.00014291,-0.0012948,-0.0011216
2021-04-07,16:23:06.003000,0.0024475,-0.00049128,-7.7178e-05,-0.0012949,-0.0011182
2021-04-07,16:23:06.005000,0.0019422,-0.00068624,-0.00025498,-0.0012518,-0.0010737
2021-04-07,16:23:06.007000,0.0016475,-0.00068757,-0.00037828,-0.0011653,-0.0009664999999999999
2021-04-07,16:23:06.009000,0.0015255000000000002,-0.0005968,-0.00048462,-0.0010753,-0.00086661
2021-04-07,16:23:06.011000,0.0016462,-0.00045569999999999996,-0.00056504,-0.0010307,-0.00081238
2021-04-07,16:23:06.013000,0.0022829,1.5627e-05,-0.00052435,-0.00093872,-0.00070371
2021-04-07,16:23:06.015000,0.0029313000000000004,0.00047528,-0.00048389999999999994,-0.00087724,-0.00063898
2021-04-07,16:23:06.017000,0.0030681999999999997,0.00039985,-0.00062098,-0.00099868,-0.00075251
2021-04-07,16:23:06.019000,0.0028155999999999997,-3.6973e-05,-0.00084938,-0.0011759000000000001,-0.00094122
2021-04-07,16:23:06.021000,0.0023076999999999998,-0.00051063,-0.0011145,-0.0013124,-0.0010912
2021-04-07,16:23:06.023000,0.001782,-0.00083028,-0.0013622,-0.0013672,-0.0011172
2021-04-07,16:23:06.025000,0.0014574000000000002,-0.00085688,-0.0015213,-0.0012609000000000001,-0.0010095
2021-04-07,16:23:06.027000,0.0012274,-0.0007611,-0.0016651,-0.0011148,-0.00087026
2021-04-07,16:23:06.029000,0.0010822000000000002,-0.00071393,-0.0017917999999999999,-0.0010498,-0.00077552
2021-04-07,16:23:06.031000,0.0011508,-0.00062302,-0.0018824999999999998,-0.0010231,-0.00073995
2021-04-07,16:23:06.033000,0.0014418,-0.00043985,-0.0019404,-0.0010157,-0.00072282
2021-04-07,16:23:06.035000,0.0018365999999999999,-0.00024788,-0.0019686,-0.0010419000000000001,-0.00073093
2021-04-07,16:23:06.037000,0.0021453,-0.00017116,-0.0020581999999999996,-0.0010987,-0.00078761
2021-04-07,16:23:06.039000,0.0022266,-0.00020329,-0.0021605,-0.0011524,-0.00082454
2021-04-07,16:23:06.041000,0.0020656,-0.00027034,-0.0022281,-0.001167,-0.00081814
2021-04-07,16:23:06.043000,0.0017477999999999999,-0.00039947,-0.0023626999999999997,-0.0011328,-0.00078817
2021-04-07,16:23:06.045000,0.0013366,-0.00051183,-0.0025081,-0.0010456,-0.00070776
2021-04-07,16:23:06.047000,0.00089286,-0.00057127,-0.0026141,-0.00095924,-0.00061856
2021-04-07,16:23:06.049000,0.00055532,-0.00068656,-0.0027449,-0.0009283999999999999,-0.00059259
2021-04-07,16:23:06.051000,0.00044974,-0.00076249,-0.0028443,-0.00093128,-0.00060382
2021-04-07,16:23:06.053000,0.0006155,-0.00071308,-0.0028954999999999996,-0.00096246,-0.00063112
2021-04-07,16:23:06.055000,0.00091888,-0.00065141,-0.0029521,-0.001013,-0.00068466
2021-04-07,16:23:06.057000,0.0011567,-0.00061956,-0.0030052,-0.0010558,-0.00074172
2021-04-07,16:23:06.059000,0.0012692,-0.00059622,-0.0030711,-0.0010921,-0.00077574
2021-04-07,16:23:06.061000,0.0012324999999999999,-0.00058375,-0.0031517,-0.0010531,-0.00074107
2021-04-07,16:23:06.063000,0.0010234999999999999,-0.00055835,-0.0032356999999999998,-0.00092893,-0.00063007
2021-04-07,16:23:06.065000,0.00071824,-0.00052437,-0.0033274,-0.00082015,-0.00052023
2021-04-07,16:23:06.067000,0.0004025,-0.00054942,-0.0034079,-0.00070253,-0.00044527
2021-04-07,16:23:06.069000,0.00016718,-0.00059419,-0.0034738,-0.00057213,-0.00039625
2021-04-07,16:23:06.071000,0.00010246,-0.00065096,-0.0035224,-0.00052252,-0.00043369999999999997
2021-04-07,16:23:06.073000,0.00017239,-0.00080133,-0.0035582,-0.00054141,-0.00056655
2021-04-07,16:23:06.075000,0.00032299,-0.00089099,-0.0035462,-0.00056568,-0.00070482
2021-04-07,16:23:06.077000,0.00051923,-0.00090836,-0.0034826,-0.00057273,-0.00082759
2021-04-07,16:23:06.079000,0.0006359,-0.00096521,-0.0034485999999999996,-0.00054019,-0.00089168
2021-04-07,16:23:06.081000,0.00058846,-0.00091651,-0.0034051000000000003,-0.00043819999999999997,-0.00084421
2021-04-07,16:23:06.083000,0.00041378,-0.0008148,-0.0033405,-0.00029465,-0.00075579
2021-04-07,16:23:06.085000,0.00018105,-0.00070759,-0.0033351999999999995,-0.00013049,-0.00062145
2021-04-07,16:23:06.087000,-2.3186999999999997e-05,-0.0005089,-0.0033486999999999996,5.923899999999999e-05,-0.00042061
2021-04-07,16:23:06.089000,-0.00013674,-0.00034266,-0.0033751,0.00020204,-0.00025472
2021-04-07,16:23:06.091000,-0.00019957,-0.00025448,-0.0034595,0.00023949,-0.00017188
2021-04-07,16:23:06.093000,-0.00017737,-0.00015649,-0.0035241,0.00016367,-0.00011894
2021-04-07,16:23:06.095000,-3.8156e-05,-2.2627e-06,-0.0035361999999999993,2.3679e-05,-6.0605e-05
2021-04-07,16:23:06.097000,0.00015005,0.00018219999999999998,-0.0035308,-0.00012984,-9.6784e-06
2021-04-07,16:23:06.099000,0.00042347,0.00050604,-0.0034485999999999996,-0.00031329,0.00011797
2021-04-07,16:23:06.101000,0.00060433,0.00096878,-0.0033135999999999994,-0.00044092,0.00034934
2021-04-07,16:23:06.103000,0.00049274,0.0011625,-0.0032254,-0.00050644,0.00053872
2021-04-07,16:23:06.105000,0.00016795,0.0010502,-0.0031986000000000002,-0.00062266,0.00064729
2021-04-07,16:23:06.107000,-0.00028919,0.00088461,-0.0031778,-0.00072118,0.0006822
2021-04-07,16:23:06.109000,-0.00060718,0.0006226,-0.0030797,-0.0007838999999999999,0.00062917
2021-04-07,16:23:06.111000,-0.00063782,0.00033386,-0.0029915,-0.00087081,0.00054477
2021-04-07,16:23:06.113000,-0.00042919,0.0002468,-0.0029415,-0.00093963,0.00047121
2021-04-07,16:23:06.115000,4.6679e-06,0.00029166,-0.002816,-0.00096822,0.00040937
2021-04-07,16:23:06.117000,0.00030788,0.00016132,-0.0027545,-0.00092399,0.00033051
2021-04-07,16:23:06.119000,0.00029873,-8.669899999999999e-05,-0.0028665,-0.00079346,0.00027123
2021-04-07,16:23:06.121000,0.00013224,-0.00019526,-0.0030516,-0.00056022,0.00030219
2021-04-07,16:23:06.123000,-0.00026634,-0.00033254,-0.0032241,-0.00027173,0.00034587
2021-04-07,16:23:06.125000,-0.00083553,-0.00062405,-0.0033169000000000002,-0.00010651,0.00030011
2021-04-07,16:23:06.127000,-0.0012939,-0.00085978,-0.0033528,-1.7153e-05,0.00022653
2021-04-07,16:23:06.129000,-0.0015355,-0.00094889,-0.0033585999999999998,9.471100000000001e-05,0.00018938
2021-04-07,16:23:06.131000,-0.0014770999999999999,-0.00092503,-0.0033125999999999997,0.00014897,0.00011963
2021-04-07,16:23:06.133000,-0.0011679,-0.00084916,-0.0032534999999999994,0.00016617,1.0027e-05
2021-04-07,16:23:06.135000,-0.00088473,-0.0007968999999999999,-0.0032027,0.00015928,-8.3736e-05
2021-04-07,16:23:06.137000,-0.00063838,-0.00073912,-0.0031592,0.00010803,-0.00016196
2021-04-07,16:23:06.139000,-0.00040198,-0.00065648,-0.0031224,0.00010133,-0.00018804
2021-04-07,16:23:06.141000,-0.00040752,-0.00060273,-0.0030816,0.00015108,-0.00014974
2021-04-07,16:23:06.143000,-0.00055599,-0.00052383,-0.0030375999999999997,0.00021691,-6.8909e-05
2021-04-07,16:23:06.145000,-0.00063282,-0.00034527,-0.0029978,0.00033608,7.5699e-05
2021-04-07,16:23:06.147000,-0.00079113,-0.00022152,-0.0029673,0.00045052,0.00021267
2021-04-07,16:23:06.149000,-0.0010068,-0.00030169,-0.0029191,0.00043769999999999996,0.0002289
2021-04-07,16:23:06.151000,-0.0011285,-0.00051224,-0.0028815,0.00031323,0.00013397
2021-04-07,16:23:06.153000,-0.0011951,-0.00072948,-0.0028281,0.00014283,-7.4051e-06
2021-04-07,16:23:06.155000,-0.0010564,-0.00080612,-0.0026756,-7.501e-06,-0.00012307
2021-04-07,16:23:06.157000,-0.00073117,-0.00072277,-0.0025166,-7.4731e-05,-0.00016427
2021-04-07,16:23:06.159000,-0.0005757999999999999,-0.00065583,-0.0023726,-9.7845e-05,-0.00016394
2021-04-07,16:23:06.161000,-0.00065048,-0.00064683,-0.0021926,-9.2922e-05,-0.00013375
2021-04-07,16:23:06.163000,-0.00086808,-0.00063368,-0.0020449,-1.1249e-05,-4.4964e-05
2021-04-07,16:23:06.165000,-0.0011617,-0.00061095,-0.0019575,0.000101,7.255199999999999e-05
2021-04-07,16:23:06.167000,-0.0013649,-0.00057605,-0.0018828,0.00018563,0.00016727
2021-04-07,16:23:06.169000,-0.0014555,-0.00055713,-0.0017942,0.00022907,0.00021454
2021-04-07,16:23:06.171000,-0.0014208,-0.00055353,-0.0017211,0.00020852,0.00020469999999999996
2021-04-07,16:23:06.173000,-0.0012245,-0.00055858,-0.0016483000000000001,0.00014133,0.0001291
2021-04-07,16:23:06.175000,-0.0009994,-0.00058404,-0.0015544,6.3437e-05,3.1226e-05
2021-04-07,16:23:06.177000,-0.00078901,-0.00055863,-0.0014515999999999997,2.2444e-05,-1.3704000000000001e-05
2021-04-07,16:23:06.179000,-0.0006662,-0.00050628,-0.0013746,2.9109000000000002e-05,-2.2139e-05
2021-04-07,16:23:06.181000,-0.00075152,-0.00048681,-0.0013357999999999998,9.1167e-05,1.3214000000000001e-05
2021-04-07,16:23:06.183000,-0.00091158,-0.00042442,-0.0012471,0.0002609,0.00014942
2021-04-07,16:23:06.188000,0.059815999999999994,0.00059916,-0.029027999999999998,-0.019913999999999998,-0.019528999999999998
2021-04-07,16:23:06.190000,0.087128,0.00079844,-0.040452999999999996,-0.028893000000000002,-0.028485000000000003
2021-04-07,16:23:06.192000,0.065474,0.00050309,-0.03137,-0.021686,-0.021474
2021-04-07,16:23:06.194000,0.078845,0.00040959,-0.036982,-0.026170999999999996,-0.026005
2021-04-07,16:23:06.196000,0.073382,0.00030583,-0.034509,-0.024314,-0.024253
2021-04-07,16:23:06.198000,0.073599,0.00043036,-0.034253,-0.024205,-0.024246
2021-04-07,16:23:06.200000,0.077447,0.0006462000000000001,-0.035483,-0.025274,-0.025391
2021-04-07,16:23:06.202000,0.073418,0.00067736,-0.03354,-0.023801,-0.024027
2021-04-07,16:23:06.204000,0.07665599999999999,0.0006265,-0.034845,-0.024827000000000002,-0.02513
2021-04-07,16:23:06.206000,0.07472000000000001,0.00059452,-0.034025,-0.024128999999999998,-0.024509
2021-04-07,16:23:06.208000,0.07475599999999999,0.00070539,-0.033938,-0.023992,-0.024447
2021-04-07,16:23:06.210000,0.07559500000000001,0.00086278,-0.03414,-0.024081,-0.024616
2021-04-07,16:23:06.212000,0.074311,0.00091863,-0.033457,-0.023534,-0.024166999999999998
2021-04-07,16:23:06.214000,0.075463,0.00084024,-0.033787,-0.023888,-0.024603
2021-04-07,16:23:06.216000,0.074913,0.00072012,-0.033398000000000004,-0.023731,-0.024515000000000002
2021-04-07,16:23:06.218000,0.075222,0.00059948,-0.033358,-0.023871,-0.024731
2021-04-07,16:23:06.220000,0.075528,0.00041594,-0.033353,-0.024008,-0.024929
2021-04-07,16:23:06.222000,0.075202,0.00033666,-0.033112,-0.023886,-0.024859
2021-04-07,16:23:06.224000,0.075544,0.00038829,-0.03313,-0.023912,-0.024950999999999997
2021-04-07,16:23:06.226000,0.07513099999999999,0.00042289,-0.032876999999999997,-0.023674,-0.02478
2021-04-07,16:23:06.228000,0.074976,0.00047987,-0.032787000000000004,-0.023523,-0.02469
2021-04-07,16:23:06.230000,0.07487200000000001,0.00055117,-0.032649,-0.023385,-0.024605000000000002
2021-04-07,16:23:06.232000,0.074762,0.00060415,-0.032432,-0.023263,-0.024529
2021-04-07,16:23:06.234000,0.074998,0.00066227,-0.032339,-0.023269,-0.024583
2021-04-07,16:23:06.236000,0.075201,0.00070509,-0.032163,-0.023277000000000003,-0.024628
2021-04-07,16:23:06.238000,0.075579,0.00073951,-0.032022,-0.023351,-0.024725
2021-04-07,16:23:06.240000,0.075829,0.00077316,-0.031896,-0.023387,-0.024784
2021-04-07,16:23:06.242000,0.07593,0.00079279,-0.031756,-0.023393,-0.024815
2021-04-07,16:23:06.244000,0.07592,0.00077558,-0.031657,-0.023375999999999997,-0.024822
2021-04-07,16:23:06.246000,0.075671,0.00073764,-0.031572,-0.023294,-0.024745
2021-04-07,16:23:06.248000,0.07545299999999999,0.00074689,-0.0315,-0.023226,-0.024666999999999998
2021-04-07,16:23:06.250000,0.075323,0.00076801,-0.031435000000000005,-0.023176,-0.024608
2021-04-07,16:23:06.252000,0.075289,0.00078559,-0.031366000000000005,-0.02317,-0.024588
2021-04-07,16:23:06.254000,0.075463,0.0008302999999999999,-0.031286,-0.023244,-0.024634
2021-04-07,16:23:06.256000,0.075802,0.00084851,-0.031213,-0.023369,-0.024723
2021-04-07,16:23:06.258000,0.076144,0.00089727,-0.031132999999999997,-0.023494,-0.024806
2021-04-07,16:23:06.260000,0.07644,0.00099359,-0.031042,-0.023586000000000003,-0.024865
2021-04-07,16:23:06.262000,0.076665,0.0010314999999999999,-0.030972000000000003,-0.023653,-0.0249
2021-04-07,16:23:06.264000,0.07663099999999999,0.0010168,-0.030917,-0.023684999999999998,-0.02489
2021-04-07,16:23:06.266000,0.07638099999999999,0.00096158,-0.030885000000000003,-0.023693000000000002,-0.024845
2021-04-07,16:23:06.268000,0.076137,0.00088602,-0.030876999999999998,-0.023708,-0.024798
2021-04-07,16:23:06.270000,0.075936,0.00084757,-0.030861000000000003,-0.023727,-0.024766
2021-04-07,16:23:06.272000,0.075915,0.00086067,-0.030813,-0.023773,-0.024762
2021-04-07,16:23:06.274000,0.07611699999999999,0.00087577,-0.030760000000000003,-0.023880000000000002,-0.02481
2021-04-07,16:23:06.276000,0.076388,0.00090013,-0.030697000000000002,-0.024021,-0.024899
2021-04-07,16:23:06.278000,0.076727,0.00096104,-0.030605,-0.024152,-0.024984
2021-04-07,16:23:06.280000,0.07699299999999999,0.00094938,-0.030557,-0.024279,-0.025072
2021-04-07,16:23:06.282000,0.077252,0.0011166,-0.030462,-0.024293000000000002,-0.025044999999999998
2021-04-07,16:23:06.284000,0.077668,0.0016210999999999999,-0.030254000000000003,-0.024146,-0.024847
2021-04-07,16:23:06.286000,0.07771499999999999,0.0018616,-0.030133999999999998,-0.024047,-0.024702
2021-04-07,16:23:06.288000,0.077214,0.0015979000000000002,-0.030154000000000004,-0.024087,-0.024699000000000002
2021-04-07,16:23:06.290000,0.076626,0.001139,-0.030247000000000003,-0.024253,-0.024812999999999998
2021-04-07,16:23:06.292000,0.076192,0.00068887,-0.030351999999999997,-0.024474,-0.024981
2021-04-07,16:23:06.294000,0.076152,0.0005141,-0.030358,-0.02458,-0.025061
2021-04-07,16:23:06.296000,0.076563,0.00066289,-0.03027,-0.024637,-0.025099
2021-04-07,16:23:06.298000,0.077047,0.00083344,-0.030166000000000002,-0.024736,-0.025155
2021-04-07,16:23:06.300000,0.07735399999999999,0.00091009,-0.030088999999999998,-0.02481,-0.02519
2021-04-07,16:23:06.302000,0.07751,0.0009698,-0.030031,-0.024862000000000002,-0.025211
2021-04-07,16:23:06.304000,0.077519,0.0010103999999999998,-0.029958999999999996,-0.024859,-0.025183
2021-04-07,16:23:06.306000,0.07736900000000001,0.0010616,-0.02988,-0.024781,-0.025084
2021-04-07,16:23:06.308000,0.077198,0.0011385,-0.029818,-0.024707,-0.024983
2021-04-07,16:23:06.310000,0.077128,0.0011911,-0.029767000000000002,-0.024666,-0.024918
2021-04-07,16:23:06.312000,0.07712000000000001,0.0012054000000000001,-0.029716000000000003,-0.024673,-0.024908
2021-04-07,16:23:06.314000,0.077189,0.0011352,-0.029674000000000002,-0.024773,-0.024984
2021-04-07,16:23:06.316000,0.077405,0.0010375,-0.029618000000000002,-0.024916,-0.025116
2021-04-07,16:23:06.318000,0.077624,0.00097229,-0.029532,-0.025044,-0.025238999999999998
2021-04-07,16:23:06.320000,0.077775,0.00091482,-0.029450999999999998,-0.025158,-0.025336
2021-04-07,16:23:06.322000,0.077909,0.00091608,-0.029348000000000003,-0.025197,-0.025368
2021-04-07,16:23:06.324000,0.077859,0.0009285999999999999,-0.029230000000000003,-0.025171000000000002,-0.025325999999999998
2021-04-07,16:23:06.326000,0.077666,0.00093412,-0.029146,-0.025129,-0.025266
2021-04-07,16:23:06.328000,0.077463,0.00092051,-0.029064,-0.025072999999999998,-0.025204
2021-04-07,16:23:06.330000,0.077337,0.00094814,-0.028948,-0.025016999999999998,-0.025141
2021-04-07,16:23:06.332000,0.077597,0.0012246,-0.028745,-0.024914,-0.025051
2021-04-07,16:23:06.334000,0.078054,0.0015050999999999999,-0.028516000000000003,-0.024866,-0.024993
2021-04-07,16:23:06.336000,0.078322,0.0015365,-0.028374,-0.024938,-0.025086
2021-04-07,16:23:06.338000,0.07835700000000001,0.0013044999999999999,-0.028297000000000003,-0.025109,-0.025287
2021-04-07,16:23:06.340000,0.078181,0.00085351,-0.028269,-0.025318,-0.025481
2021-04-07,16:23:06.342000,0.078041,0.00061348,-0.028204000000000003,-0.02537,-0.025581
2021-04-07,16:23:06.344000,0.077998,0.00065735,-0.028058,-0.025365000000000002,-0.02555
2021-04-07,16:23:06.346000,0.07791000000000001,0.00073704,-0.027901,-0.025247,-0.025442
2021-04-07,16:23:06.348000,0.077787,0.00080995,-0.027752,-0.025136000000000002,-0.025337000000000002
2021-04-07,16:23:06.350000,0.077705,0.00085131,-0.027604000000000004,-0.025187,-0.025283
2021-04-07,16:23:06.352000,0.077779,0.00091368,-0.027462,-0.025019,-0.025279
2021-04-07,16:23:06.354000,0.077929,0.00090557,-0.027382999999999998,-0.025307,-0.025325
2021-04-07,16:23:06.356000,0.07836699999999999,0.0010649000000000001,-0.027268,-0.025764999999999996,-0.025349
2021-04-07,16:23:06.358000,0.079167,0.0015505,-0.027035000000000003,-0.025294999999999998,-0.025296000000000003
2021-04-07,16:23:06.360000,0.07955599999999999,0.0017131,-0.026911,-0.025075999999999998,-0.025315
2021-04-07,16:23:06.362000,0.079336,0.0014239,-0.02696,-0.025359,-0.025438
2021-04-07,16:23:06.364000,0.07893700000000001,0.0010176999999999999,-0.027038999999999997,-0.025393000000000002,-0.025551
2021-04-07,16:23:06.366000,0.078431,0.00061115,-0.027096,-0.025505,-0.025629000000000002
2021-04-07,16:23:06.368000,0.078083,0.00048996,-0.027092,-0.025501,-0.025604000000000002
2021-04-07,16:23:06.370000,0.078162,0.0006808,-0.027012,-0.025377,-0.025495
2021-04-07,16:23:06.372000,0.078374,0.00085067,-0.026933999999999996,-0.025394,-0.025454
2021-04-07,16:23:06.374000,0.078627,0.0009441000000000001,-0.026910000000000003,-0.025412999999999998,-0.025490000000000002
2021-04-07,16:23:06.376000,0.079096,0.0010977,-0.026875,-0.025484,-0.025543
2021-04-07,16:23:06.378000,0.079457,0.001143,-0.026831,-0.025594,-0.025632
2021-04-07,16:23:06.380000,0.07949400000000001,0.00096989,-0.026847000000000003,-0.025712,-0.025762
2021-04-07,16:23:06.382000,0.07936599999999999,0.0007291,-0.026917,-0.02584,-0.025875
2021-04-07,16:23:06.384000,0.079075,0.00048683,-0.027000000000000003,-0.025910000000000002,-0.025929
2021-04-07,16:23:06.386000,0.078795,0.00037489,-0.027037000000000002,-0.025912,-0.025918
2021-04-07,16:23:06.388000,0.078657,0.00039266,-0.027027,-0.025861000000000002,-0.02586
2021-04-07,16:23:06.390000,0.07861699999999999,0.0004526,-0.026997000000000004,-0.025810000000000003,-0.0258
2021-04-07,16:23:06.392000,0.078802,0.00060083,-0.026935,-0.025798,-0.025775
2021-04-07,16:23:06.394000,0.079098,0.00068771,-0.026887,-0.025836,-0.025812
2021-04-07,16:23:06.396000,0.079324,0.00065288,-0.026893,-0.025939,-0.025937
2021-04-07,16:23:06.398000,0.07953099999999999,0.00058003,-0.026925,-0.026070999999999997,-0.02609
2021-04-07,16:23:06.400000,0.07966799999999999,0.00046178,-0.026969,-0.026179,-0.026194
2021-04-07,16:23:06.402000,0.079704,0.00040353,-0.026998,-0.02623,-0.026236000000000002
2021-04-07,16:23:06.404000,0.079678,0.00043444,-0.026993,-0.026198000000000003,-0.026206999999999998
2021-04-07,16:23:06.406000,0.07955599999999999,0.00045456,-0.026992000000000002,-0.026123,-0.026147000000000004
2021-04-07,16:23:06.408000,0.079391,0.00045732,-0.027011,-0.026077999999999997,-0.026106999999999998
2021-04-07,16:23:06.410000,0.079322,0.00046132,-0.027027999999999996,-0.026064,-0.026091000000000003
2021-04-07,16:23:06.412000,0.079407,0.00046654,-0.027049,-0.02609,-0.026119
2021-04-07,16:23:06.414000,0.079625,0.00047094,-0.027079000000000002,-0.026162,-0.0262
2021-04-07,16:23:06.416000,0.079932,0.00046921,-0.027097000000000003,-0.026261000000000003,-0.026312000000000002
2021-04-07,16:23:06.418000,0.080247,0.00045377,-0.027114999999999997,-0.026362,-0.026423000000000002
2021-04-07,16:23:06.420000,0.080471,0.00044088,-0.027141000000000002,-0.026434,-0.026499
2021-04-07,16:23:06.422000,0.080554,0.00043977,-0.027164999999999998,-0.026472000000000002,-0.026538
2021-04-07,16:23:06.424000,0.080532,0.00043902,-0.027166000000000003,-0.026452,-0.026524000000000002
2021-04-07,16:23:06.426000,0.08042200000000001,0.00045583,-0.027166000000000003,-0.026381,-0.026461000000000002
2021-04-07,16:23:06.428000,0.080247,0.00045736,-0.027192,-0.026336000000000002,-0.026423000000000002
2021-04-07,16:23:06.430000,0.08016799999999999,0.00043906,-0.027216000000000004,-0.026322,-0.026414999999999998
2021-04-07,16:23:06.432000,0.080209,0.00040486,-0.027243,-0.026364999999999996,-0.026449
2021-04-07,16:23:06.434000,0.080414,0.0004117,-0.027264999999999998,-0.02645,-0.026525999999999997
2021-04-07,16:23:06.436000,0.081001,0.00072985,-0.027174,-0.026430000000000002,-0.0265
2021-04-07,16:23:06.438000,0.081621,0.0011912000000000001,-0.026993,-0.026337,-0.0264
2021-04-07,16:23:06.440000,0.081813,0.0013378,-0.026881,-0.026310000000000004,-0.026376
2021-04-07,16:23:06.442000,0.0816,0.001142,-0.026913,-0.026371,-0.026448000000000003
2021-04-07,16:23:06.444000,0.08089,0.00058892,-0.027055000000000003,-0.026496,-0.0266
2021-04-07,16:23:06.446000,0.080025,-4.4595e-06,-0.027157,-0.026560000000000004,-0.02667
2021-04-07,16:23:06.448000,0.079579,-0.00016684,-0.027145,-0.026489,-0.026599
2021-04-07,16:23:06.450000,0.079368,-0.00016391,-0.027101,-0.026397000000000004,-0.026545
2021-04-07,16:23:06.452000,0.079346,-0.00010593,-0.027036,-0.026342,-0.026501999999999998
2021-04-07,16:23:06.454000,0.07954299999999999,6.1597e-05,-0.026954000000000002,-0.026313,-0.026458
2021-04-07,16:23:06.456000,0.07967300000000001,0.00012061,-0.026882,-0.026307,-0.026456
2021-04-07,16:23:06.458000,0.079928,0.00027315,-0.026789,-0.026268,-0.026437000000000002
2021-04-07,16:23:06.460000,0.080195,0.00052613,-0.026688,-0.026177,-0.026363
2021-04-07,16:23:06.462000,0.080044,0.00058214,-0.026608999999999997,-0.026072,-0.026272000000000004
2021-04-07,16:23:06.464000,0.079658,0.0004951,-0.026558,-0.025970999999999998,-0.026206
2021-04-07,16:23:06.466000,0.078954,0.00024239999999999998,-0.026532,-0.025874,-0.026144
2021-04-07,16:23:06.468000,0.078075,-2.9034e-05,-0.026483999999999997,-0.025748000000000004,-0.026032999999999997
2021-04-07,16:23:06.470000,0.07757599999999999,-6.8902e-06,-0.026323000000000003,-0.025521000000000002,-0.025827999999999997
2021-04-07,16:23:06.472000,0.077183,0.00014234,-0.026066000000000002,-0.025256999999999998,-0.025582
2021-04-07,16:23:06.474000,0.0767,0.00019005,-0.025854000000000002,-0.025072999999999998,-0.02541
2021-04-07,16:23:06.476000,0.076301,0.00014977,-0.025682,-0.024965,-0.02532
2021-04-07,16:23:06.478000,0.075935,0.00010261,-0.025457,-0.024866,-0.025233000000000002
2021-04-07,16:23:06.480000,0.075339,9.8986e-05,-0.025185,-0.024672,-0.025041
2021-04-07,16:23:06.482000,0.07438600000000001,0.00010545,-0.02485,-0.02436,-0.024731
2021-04-07,16:23:06.484000,0.073422,0.00011356,-0.024451,-0.023975,-0.024355
2021-04-07,16:23:06.486000,0.072396,0.00015482,-0.024059999999999998,-0.023563,-0.023941
2021-04-07,16:23:06.488000,0.071184,0.00022461,-0.02365,-0.02314,-0.023523
2021-04-07,16:23:06.490000,0.070138,0.00026935,-0.023222,-0.022732,-0.023127
2021-04-07,16:23:06.492000,0.06919,0.00027353,-0.022886,-0.022442,-0.022831999999999998
2021-04-07,16:23:06.494000,0.0682,0.00021157,-0.022581999999999998,-0.022228,-0.022618
2021-04-07,16:23:06.496000,0.067366,0.00010819,-0.022236000000000002,-0.021997,-0.022364
2021-04-07,16:23:06.498000,0.066512,8.798e-05,-0.021863,-0.021743000000000002,-0.022095
2021-04-07,16:23:06.500000,0.06554,0.00012548,-0.021487,-0.021443,-0.021788
2021-04-07,16:23:06.502000,0.064634,0.00014794,-0.02109,-0.02107,-0.021384999999999998
2021-04-07,16:23:06.504000,0.063431,0.00010505,-0.020673,-0.020636,-0.02099
2021-04-07,16:23:06.506000,0.061977,9.4026e-05,-0.020306,-0.020225,-0.020513999999999998
2021-04-07,16:23:06.508000,0.060804,0.00034032,-0.019855,-0.019744,-0.01991
2021-04-07,16:23:06.510000,0.059733,0.00060435,-0.019306,-0.019172,-0.01944
2021-04-07,16:23:06.512000,0.058409,0.00054063,-0.018886,-0.01877,-0.019109
2021-04-07,16:23:06.514000,0.056978999999999995,0.000296,-0.018545,-0.018489,-0.018784
2021-04-07,16:23:06.516000,0.055768,8.4105e-05,-0.018158,-0.018172999999999998,-0.018472
2021-04-07,16:23:06.518000,0.054616,-4.2886e-05,-0.017745,-0.017871,-0.018163
2021-04-07,16:23:06.520000,0.053204999999999995,-6.6064e-05,-0.017321,-0.017415,-0.0177
2021-04-07,16:23:06.522000,0.051476999999999995,-0.00011351,-0.016863999999999997,-0.016854,-0.017115000000000002
2021-04-07,16:23:06.524000,0.049645999999999996,-0.00021788,-0.016342,-0.016393,-0.016633000000000002
2021-04-07,16:23:06.526000,0.047786,-0.00020301,-0.015786,-0.015833,-0.016066
2021-04-07,16:23:06.528000,0.045857,-4.8926000000000006e-05,-0.015166999999999998,-0.015103,-0.015318
2021-04-07,16:23:06.530000,0.044242000000000004,0.00025277,-0.014372,-0.014288999999999998,-0.014494
2021-04-07,16:23:06.532000,0.04257,0.00056177,-0.013565,-0.013477000000000001,-0.013663999999999999
2021-04-07,16:23:06.534000,0.040268,0.0005931,-0.012790000000000001,-0.012717000000000001,-0.012912
2021-04-07,16:23:06.536000,0.037704,0.00035802,-0.011982,-0.012020999999999999,-0.012187
2021-04-07,16:23:06.538000,0.034905,-4.2646000000000005e-05,-0.011329,-0.011432,-0.011579
2021-04-07,16:23:06.540000,0.031897,-0.00033484,-0.010604,-0.010736,-0.010888
2021-04-07,16:23:06.542000,0.029156,-0.00035149,-0.009662,-0.009836899999999999,-0.009933599999999999
2021-04-07,16:23:06.544000,0.026354000000000002,-0.00030639999999999997,-0.0087382,-0.008837600000000001,-0.0089499
2021-04-07,16:23:06.546000,0.023387,-0.0002447,-0.007855800000000001,-0.0079443,-0.0079747
2021-04-07,16:23:06.548000,0.020927,-0.00022386,-0.0069798,-0.0070113,-0.007027199999999999
2021-04-07,16:23:06.550000,0.018511,-0.00028082,-0.0061016,-0.0060926,-0.0061288
2021-04-07,16:23:06.552000,0.015918,-0.00024624,-0.0053473,-0.0054600000000000004,-0.0053696
2021-04-07,16:23:06.554000,0.013855000000000001,-3.3030999999999996e-05,-0.0045771,-0.004630899999999999,-0.0046623
2021-04-07,16:23:06.556000,0.012311,0.00041349999999999997,-0.0036281,-0.0039295,-0.0037804
2021-04-07,16:23:06.558000,0.010607,0.00072344,-0.0027943,-0.0031276,-0.0030101999999999998
2021-04-07,16:23:06.560000,0.0083477,0.00050048,-0.0021588,-0.0024628,-0.0024434
2021-04-07,16:23:06.562000,0.00617,8.6485e-05,-0.0016102,-0.0023041,-0.0018995000000000001
2021-04-07,16:23:06.564000,0.003986099999999999,-0.00034969,-0.0011202999999999999,-0.0012029000000000002,-0.0014308
2021-04-07,16:23:06.566000,0.001607,-0.00072358,-0.00067095,-0.0016192000000000001,-0.00089061
2021-04-07,16:23:06.568000,-0.00010433,-0.00065281,-0.00014555,-0.0026779,-0.00023083
2021-04-07,16:23:06.570000,-0.0013955999999999999,-0.000397,0.00046495,-0.0004832,0.00029396
2021-04-07,16:23:06.572000,-0.0026721,-0.00028700000000000004,0.00098808,0.00085987,0.00071977
2021-04-07,16:23:06.574000,-0.0037153,-0.00017619,0.0014597000000000002,0.00061869,0.0011519
2021-04-07,16:23:06.576000,-0.0045301000000000004,-5.4043000000000004e-05,0.0019419,0.0013649,0.0015417999999999999
2021-04-07,16:23:06.578000,-0.0053146,2.0161e-05,0.0023884,0.0015886,0.0018915
2021-04-07,16:23:06.580000,-0.006342,-9.4864e-06,0.0027379,0.0018247,0.002205
2021-04-07,16:23:06.582000,-0.0074937,-0.00010302,0.0030440000000000003,0.0022857,0.0025303
2021-04-07,16:23:06.584000,-0.0086021,-0.00015533,0.0034067,0.0024278000000000004,0.0028503
2021-04-07,16:23:06.586000,-0.009629700000000001,-0.00014439999999999999,0.0037489000000000003,0.002817,0.0031728000000000004
2021-04-07,16:23:06.588000,-0.010559,-7.9888e-05,0.004068199999999999,0.0031168000000000003,0.003532
2021-04-07,16:23:06.590000,-0.011359999999999999,-0.00014028,0.004357,0.0033424,0.0037872
2021-04-07,16:23:06.592000,-0.011951,-0.00022507,0.0045837,0.0035486999999999997,0.0039594999999999995
2021-04-07,16:23:06.594000,-0.012519,-0.00020111,0.0048492,0.0036741,0.0041501
2021-04-07,16:23:06.596000,-0.013004,-0.00017034,0.0051327,0.0038607,0.0043278
2021-04-07,16:23:06.598000,-0.0131,0.00018195,0.005435,0.0040625,0.0045701
2021-04-07,16:23:06.600000,-0.013236000000000001,0.00064819,0.0057821,0.0043403999999999995,0.0048823
2021-04-07,16:23:06.602000,-0.013926,0.00058951,0.0060198,0.0045385,0.0050955
2021-04-07,16:23:06.604000,-0.015027,0.00019148,0.0061294,0.0046133,0.0052005
2021-04-07,16:23:06.606000,-0.016187,-0.00023073,0.006206399999999999,0.0047052,0.005301
2021-04-07,16:23:06.608000,-0.01706,-0.00056387,0.006299,0.0047905000000000005,0.0054025
2021-04-07,16:23:06.610000,-0.017652,-0.00071156,0.0064367999999999995,0.004889899999999999,0.0054973
2021-04-07,16:23:06.612000,-0.018076,-0.00072978,0.006569,0.0049812,0.0056192
2021-04-07,16:23:06.614000,-0.018264,-0.00065442,0.0067353000000000005,0.0050621,0.0057496000000000005
2021-04-07,16:23:06.616000,-0.018237,-0.00043233,0.0069913,0.0051949,0.0058685000000000005
2021-04-07,16:23:06.618000,-0.018097,-3.0743e-05,0.007283400000000001,0.0053958,0.006061100000000001
2021-04-07,16:23:06.620000,-0.018094,0.00032696,0.007557300000000001,0.0056175,0.0063026
2021-04-07,16:23:06.622000,-0.018378,0.00038868,0.0077223,0.0057585,0.0064545
2021-04-07,16:23:06.624000,-0.019062,0.00012547,0.0077593,0.0058078999999999995,0.006521600000000001
2021-04-07,16:23:06.626000,-0.019984000000000002,-0.0002758,0.007747199999999999,0.005833,0.0065685000000000006
2021-04-07,16:23:06.628000,-0.020697999999999998,-0.00056512,0.0077456999999999995,0.0058725,0.006615
2021-04-07,16:23:06.630000,-0.021143000000000002,-0.00069951,0.007795300000000001,0.005925,0.0066726
2021-04-07,16:23:06.632000,-0.021185,-0.00054387,0.007926899999999999,0.0060165,0.0067821
2021-04-07,16:23:06.634000,-0.020898,-0.00017703,0.0081108,0.006142,0.006920900000000001
2021-04-07,16:23:06.636000,-0.020814,-7.898100000000001e-05,0.0082281,0.006194600000000001,0.006976
2021-04-07,16:23:06.638000,-0.020994,-0.00020784,0.0082578,0.0061732,0.0069586
2021-04-07,16:23:06.640000,-0.021222,-0.00024013,0.0083163,0.0062005,0.0069930999999999995
2021-04-07,16:23:06.642000,-0.021551,-0.00028274,0.0083944,0.0062906,0.0070845
2021-04-07,16:23:06.644000,-0.022012999999999998,-0.00039385,0.0084306,0.0063779,0.0071642
2021-04-07,16:23:06.646000,-0.022349,-0.00035935,0.0085072,0.006495399999999999,0.0072842
2021-04-07,16:23:06.648000,-0.022539,-0.00025153,0.008618899999999999,0.0066377,0.0074307
2021-04-07,16:23:06.650000,-0.022771,-0.00028014,0.0086742,0.0066964,0.0074892
2021-04-07,16:23:06.652000,-0.022899,-0.000356,0.008695200000000002,0.006675399999999999,0.0074782
2021-04-07,16:23:06.654000,-0.022907,-0.00042794,0.008723999999999999,0.006645900000000001,0.0074392
2021-04-07,16:23:06.656000,-0.022899,-0.00048866,0.008778399999999999,0.0066244,0.007398899999999999
2021-04-07,16:23:06.658000,-0.022874000000000002,-0.00049302,0.0088264,0.0066081,0.007384
2021-04-07,16:23:06.660000,-0.022956999999999998,-0.00049769,0.008869499999999999,0.0066318,0.0074
2021-04-07,16:23:06.662000,-0.023032,-0.00037885,0.0089811,0.0067417,0.007504899999999999
2021-04-07,16:23:06.664000,-0.023056,-0.00014184,0.0091187,0.0069083,0.0076828
2021-04-07,16:23:06.666000,-0.023244,-4.1311000000000005e-05,0.0091917,0.0070531000000000005,0.0078235
2021-04-07,16:23:06.668000,-0.023436000000000002,-4.8196000000000004e-05,0.009200299999999998,0.0071064,0.007882
2021-04-07,16:23:06.670000,-0.023625,-0.00017035,0.009165600000000001,0.007071200000000001,0.0078606
2021-04-07,16:23:06.672000,-0.023898,-0.00043914,0.0090949,0.0069968,0.007759
2021-04-07,16:23:06.674000,-0.023966,-0.00061663,0.0090405,0.006904899999999999,0.0076403999999999994
2021-04-07,16:23:06.676000,-0.023872,-0.00067475,0.009044799999999999,0.006858599999999999,0.007591
2021-04-07,16:23:06.678000,-0.023797,-0.00065009,0.0090867,0.006882500000000001,0.0075953
2021-04-07,16:23:06.680000,-0.023763999999999997,-0.00058161,0.0091246,0.006916899999999999,0.0076146
2021-04-07,16:23:06.682000,-0.02385,-0.00057627,0.009164799999999999,0.006993999999999999,0.007686399999999999
2021-04-07,16:23:06.684000,-0.023806,-0.00032005,0.0092891,0.0071866,0.0078599
2021-04-07,16:23:06.686000,-0.023489,0.00022511,0.0094567,0.0074518,0.008102
2021-04-07,16:23:06.688000,-0.023243,0.0006182000000000001,0.009566400000000001,0.007662100000000001,0.0082956
2021-04-07,16:23:06.690000,-0.023245,0.00069804,0.009609399999999999,0.0077047,0.0083293
2021-04-07,16:23:06.692000,-0.02361,0.00027343,0.0094856,0.0075279,0.0081444
2021-04-07,16:23:06.694000,-0.024191,-0.00047874,0.009246700000000002,0.007237100000000001,0.0078479
2021-04-07,16:23:06.696000,-0.024495,-0.00095799,0.0091156,0.0070452,0.0076343
2021-04-07,16:23:06.698000,-0.024595,-0.0011798,0.0090583,0.0069669,0.0075125
2021-04-07,16:23:06.700000,-0.024661000000000002,-0.0012450999999999999,0.009057899999999999,0.0069786,0.0074973
2021-04-07,16:23:06.702000,-0.024592,-0.0010594,0.0091622,0.007119599999999999,0.0076247
2021-04-07,16:23:06.704000,-0.024575,-0.00084442,0.009237700000000001,0.0072629999999999995,0.0077448000000000005
2021-04-07,16:23:06.706000,-0.024640000000000002,-0.00070486,0.00927,0.0073669,0.007828
2021-04-07,16:23:06.708000,-0.024672,-0.00060989,0.009304600000000001,0.007462100000000001,0.0079259
2021-04-07,16:23:06.710000,-0.024648,-0.00056191,0.0093064,0.0074889,0.0079602
2021-04-07,16:23:06.712000,-0.02447,-0.00049047,0.0092986,0.007475700000000001,0.007931
2021-04-07,16:23:06.714000,-0.024202,-0.00041522,0.0093104,0.0074751999999999996,0.0079118
2021-04-07,16:23:06.716000,-0.023812,-0.00020822,0.009373600000000001,0.0075089,0.0079361
2021-04-07,16:23:06.718000,-0.023333,0.00012509999999999998,0.009443799999999999,0.007554899999999999,0.0079781
2021-04-07,16:23:06.720000,-0.023216,0.00019374,0.009437899999999999,0.0075628,0.0079793
2021-04-07,16:23:06.722000,-0.023538,-5.4911e-05,0.0093667,0.007527,0.007925399999999999
2021-04-07,16:23:06.724000,-0.024111,-0.00047896,0.0092206,0.007433499999999999,0.007822800000000001
2021-04-07,16:23:06.726000,-0.024687,-0.00089557,0.009066,0.0073437,0.0077364999999999995
2021-04-07,16:23:06.728000,-0.024825,-0.00096557,0.009030100000000001,0.0073460999999999995,0.0077485
2021-04-07,16:23:06.730000,-0.024652,-0.00082768,0.0090512,0.0073723,0.007787100000000001
2021-04-07,16:23:06.732000,-0.024459,-0.00075285,0.009043,0.007357300000000001,0.0077710999999999995
2021-04-07,16:23:06.734000,-0.024153,-0.00065302,0.0090413,0.0073268000000000005,0.007729000000000001
2021-04-07,16:23:06.736000,-0.023839,-0.0005648,0.0090462,0.0072809,0.0076756
2021-04-07,16:23:06.738000,-0.023658000000000002,-0.00053092,0.0090399,0.0072315,0.007631499999999999
2021-04-07,16:23:06.740000,-0.023555,-0.00047088,0.0090402,0.0072161000000000005,0.007626699999999999
2021-04-07,16:23:06.742000,-0.023562,-0.00047349,0.0090226,0.0072339,0.007645600000000001
2021-04-07,16:23:06.744000,-0.023662,-0.00047072,0.008997100000000001,0.0072815,0.007695100000000001
2021-04-07,16:23:06.746000,-0.023613,-0.00026996,0.0090261,0.0073828999999999995,0.0078057000000000005
2021-04-07,16:23:06.748000,-0.023359,2.5132e-05,0.009079,0.007502,0.007932300000000002
2021-04-07,16:23:06.750000,-0.023187,0.00017206,0.0090617,0.0075273,0.007962
2021-04-07,16:23:06.752000,-0.02325,-2.9621e-05,0.008928499999999999,0.0073988,0.0078261
2021-04-07,16:23:06.754000,-0.023375,-0.00042575,0.0087543,0.0071997,0.0076096
2021-04-07,16:23:06.756000,-0.023441,-0.00071004,0.0086262,0.007041599999999999,0.0074345
2021-04-07,16:23:06.758000,-0.023449,-0.00087602,0.008538500000000001,0.0069368,0.007316
2021-04-07,16:23:06.760000,-0.023316,-0.00086934,0.0085244,0.0069236,0.0073
2021-04-07,16:23:06.762000,-0.023199,-0.00072061,0.008560799999999999,0.0069938000000000005,0.0073789
2021-04-07,16:23:06.764000,-0.023188999999999998,-0.00056617,0.0085711,0.0070592,0.007451100000000001
2021-04-07,16:23:06.766000,-0.023109,-0.00038318,0.008585299999999999,0.0071465,0.007530500000000001
2021-04-07,16:23:06.768000,-0.023042,-0.00026639999999999997,0.0085847,0.0072194,0.0075953999999999995
2021-04-07,16:23:06.770000,-0.023009,-0.00028111,0.0085268,0.007191500000000001,0.007563800000000001
2021-04-07,16:23:06.772000,-0.02291,-0.00038283,0.0084359,0.007099500000000001,0.007462999999999999
2021-04-07,16:23:06.774000,-0.022769,-0.00049942,0.0083489,0.006979600000000001,0.0073479
2021-04-07,16:23:06.776000,-0.022548,-0.00052669,0.0082919,0.0068748,0.007249600000000001
2021-04-07,16:23:06.778000,-0.022321,-0.00050441,0.008243799999999999,0.006818899999999999,0.007195900000000001
2021-04-07,16:23:06.780000,-0.022198,-0.00046221,0.008210700000000001,0.0068081999999999995,0.0071892
2021-04-07,16:23:06.782000,-0.022191,-0.0004197,0.008188500000000001,0.006838899999999999,0.0072
2021-04-07,16:23:06.784000,-0.022313999999999997,-0.00044279,0.008141299999999999,0.0068786,0.007221600000000001
2021-04-07,16:23:06.786000,-0.022433,-0.00046045,0.0080932,0.00692,0.0072559
2021-04-07,16:23:06.788000,-0.022425,-0.00044719,0.0080459,0.0069391,0.0072568
2021-04-07,16:23:06.790000,-0.022326,-0.00044866,0.0079879,0.006902800000000001,0.0072179
2021-04-07,16:23:06.792000,-0.022090000000000002,-0.00041143,0.0079433,0.0068565,0.0071753
2021-04-07,16:23:06.794000,-0.021705000000000002,-0.00030944,0.0079154,0.0068097999999999995,0.0071213000000000005
2021-04-07,16:23:06.796000,-0.021256999999999998,-0.00015673,0.0079117,0.0067575000000000005,0.007070999999999999
2021-04-07,16:23:06.798000,-0.02099,-0.00010162,0.0078876,0.0067007,0.0070215
2021-04-07,16:23:06.800000,-0.021058,-0.00026737,0.0077934,0.0066186000000000005,0.0069374
2021-04-07,16:23:06.802000,-0.021169,-0.0004455,0.007704000000000001,0.0065815,0.0068789
2021-04-07,16:23:06.804000,-0.021314,-0.0005781,0.0076288,0.0065777,0.0068569
2021-04-07,16:23:06.806000,-0.021447,-0.00061492,0.0075723,0.006591800000000001,0.0068687
2021-04-07,16:23:06.808000,-0.021337000000000002,-0.00051937,0.0075563,0.0066346999999999995,0.0069006
2021-04-07,16:23:06.810000,-0.021249,-0.00056292,0.0074822000000000005,0.006578399999999999,0.006837
2021-04-07,16:23:06.812000,-0.020779,-0.00030329,0.0075041,0.0065822,0.0068366
2021-04-07,16:23:06.814000,-0.019737,0.00042399,0.007684000000000001,0.0067158999999999995,0.0069727
2021-04-07,16:23:06.816000,-0.019134,0.00074122,0.007723000000000001,0.0067071,0.0069757000000000005
2021-04-07,16:23:06.818000,-0.019147,0.00053306,0.007606900000000001,0.0065836,0.0068376999999999995
2021-04-07,16:23:06.820000,-0.019465,4.8843e-05,0.0074054,0.0063806,0.006627600000000001
2021-04-07,16:23:06.822000,-0.020019,-0.0005713,0.0071562,0.0061563,0.006405
2021-04-07,16:23:06.824000,-0.020405,-0.00089271,0.007015100000000001,0.0060923,0.006319699999999999
2021-04-07,16:23:06.826000,-0.020581,-0.0010263,0.006906999999999999,0.0060585000000000005,0.0062841
2021-04-07,16:23:06.828000,-0.020669999999999997,-0.0011626,0.0067946,0.005988,0.0062315
2021-04-07,16:23:06.830000,-0.020481,-0.0010995999999999998,0.0067575000000000005,0.005940600000000001,0.006208
2021-04-07,16:23:06.832000,-0.020084,-0.00094191,0.0067082999999999995,0.005867,0.0061641000000000005
2021-04-07,16:23:06.834000,-0.019694999999999997,-0.00086049,0.006650399999999999,0.0057768,0.0060934
2021-04-07,16:23:06.836000,-0.019309,-0.00076448,0.0066384,0.0056894,0.0060203
2021-04-07,16:23:06.838000,-0.018959,-0.00064225,0.006606100000000001,0.0056258,0.0059772
2021-04-07,16:23:06.840000,-0.018772,-0.00056991,0.006555,0.0056018,0.0059781999999999995
2021-04-07,16:23:06.842000,-0.018727,-0.00052808,0.0065178,0.0055838,0.0059823
2021-04-07,16:23:06.844000,-0.018749000000000002,-0.00050007,0.0064737,0.005582999999999999,0.006007
2021-04-07,16:23:06.846000,-0.018782,-0.00048905,0.006418899999999999,0.005595,0.0060353
2021-04-07,16:23:06.848000,-0.018713,-0.00047581,0.0063591,0.0055609,0.0060206
2021-04-07,16:23:06.850000,-0.018535,-0.00046878,0.0062966,0.005487,0.0059873
2021-04-07,16:23:06.852000,-0.018304,-0.00046191,0.006229999999999999,0.005393899999999999,0.005914
2021-04-07,16:23:06.854000,-0.017985,-0.00044324,0.0061688,0.0052665,0.0057988
2021-04-07,16:23:06.856000,-0.017654,-0.00043578,0.0061217,0.0051485,0.0056987999999999995
2021-04-07,16:23:06.858000,-0.017435,-0.00043069,0.0060807,0.005063499999999999,0.0056223
2021-04-07,16:23:06.860000,-0.017287,-0.00040694,0.0060574,0.0049966,0.005578499999999999
2021-04-07,16:23:06.862000,-0.017235,-0.00039019999999999994,0.0060457,0.0049701,0.0055746
2021-04-07,16:23:06.864000,-0.017294999999999998,-0.00039251,0.0060208,0.0049674,0.0055842
2021-04-07,16:23:06.866000,-0.017305,-0.00040908,0.005986,0.004947699999999999,0.00558
2021-04-07,16:23:06.868000,-0.017235,-0.0004346,0.0059413999999999995,0.0048984,0.005548300000000001
2021-04-07,16:23:06.870000,-0.017103999999999998,-0.00043581,0.0058956,0.0048245,0.005495399999999999
2021-04-07,16:23:06.872000,-0.01684,-0.00041674,0.005853100000000001,0.0047242,0.0054075
2021-04-07,16:23:06.874000,-0.016489,-0.00040685,0.005806399999999999,0.0046059,0.0052896
2021-04-07,16:23:06.876000,-0.016168000000000002,-0.00039601,0.0057801,0.004501300000000001,0.005195
2021-04-07,16:23:06.878000,-0.015926,-0.00038175,0.0057583999999999995,0.0044048,0.0051266
2021-04-07,16:23:06.880000,-0.015749000000000003,-0.00036357,0.0057294,0.004366,0.0050817
2021-04-07,16:23:06.882000,-0.015637,-0.00030921,0.0057385,0.0044345,0.0050838
2021-04-07,16:23:06.884000,-0.015587,-0.00023645,0.0057463,0.0045116999999999996,0.0050903
2021-04-07,16:23:06.886000,-0.015562999999999999,-0.00022963,0.0057165,0.0045582,0.005056399999999999
2021-04-07,16:23:06.888000,-0.015575,-0.00035183,0.0056673999999999995,0.0045811,0.0049646000000000004
2021-04-07,16:23:06.890000,-0.015575,-0.00057557,0.0055707000000000005,0.0045149,0.0048008999999999994
2021-04-07,16:23:06.892000,-0.015423,-0.00074495,0.0054732,0.0044253999999999995,0.004631000000000001
2021-04-07,16:23:06.894000,-0.015128,-0.00076966,0.0054262,0.004395399999999999,0.0045053
2021-04-07,16:23:06.896000,-0.014735,-0.00067377,0.005405,0.0043462,0.0044077
2021-04-07,16:23:06.898000,-0.014266,-0.00044404,0.0054218999999999995,0.004301,0.0043812
2021-04-07,16:23:06.900000,-0.013919999999999998,-0.00020698,0.0054321000000000005,0.0043203,0.0044196999999999995
2021-04-07,16:23:06.902000,-0.013794999999999998,-8.801100000000001e-05,0.0053628,0.0043117,0.0044476
2021-04-07,16:23:06.904000,-0.013835,-4.3816e-05,0.0051894,0.0042902,0.004471800000000001
2021-04-07,16:23:06.906000,-0.013968000000000001,-5.3397e-05,0.0049261,0.0042523000000000005,0.0045106
2021-04-07,16:23:06.908000,-0.013940000000000001,4.107e-05,0.0046799,0.0041106,0.0045521
2021-04-07,16:23:06.910000,-0.013669,0.00027384,0.0044824,0.0039319,0.004573699999999999
2021-04-07,16:23:06.912000,-0.013278,0.00044491,0.004308,0.0036284,0.004562600000000001
2021-04-07,16:23:06.914000,-0.012759,0.00067611,0.0042078,0.0031793000000000004,0.0045458
2021-04-07,16:23:06.916000,-0.012206999999999999,0.00099651,0.0041562,0.0028581999999999995,0.0045268999999999995
2021-04-07,16:23:06.918000,-0.011778,0.0011401,0.004111500000000001,0.002594,0.0044899
2021-04-07,16:23:06.920000,-0.011467,0.0011902999999999998,0.0040893,0.0022775,0.0044437
2021-04-07,16:23:06.922000,-0.011224,0.0012964,0.004109300000000001,0.0021347,0.0044464
2021-04-07,16:23:06.924000,-0.011028,0.0013356,0.00417,0.0021368000000000003,0.0044866
2021-04-07,16:23:06.926000,-0.010942,0.0012458,0.0041407,0.0020857,0.0044658
2021-04-07,16:23:06.928000,-0.010964,0.0010367,0.0039935000000000005,0.001983,0.004398300000000001
2021-04-07,16:23:06.930000,-0.011028,0.00065089,0.0038635999999999996,0.0018811,0.0042563
2021-04-07,16:23:06.932000,-0.011153,0.00012796,0.0036836,0.0018212,0.0040233000000000005
2021-04-07,16:23:06.934000,-0.011208,-0.0002903,0.0033959000000000003,0.0018464000000000002,0.0038816000000000002
2021-04-07,16:23:06.936000,-0.011134,-0.00047307,0.0031557,0.0019187999999999998,0.0038198
2021-04-07,16:23:06.938000,-0.011066,-0.00055787,0.0030349,0.0019607,0.003706
2021-04-07,16:23:06.940000,-0.010978,-0.00061767,0.0030188000000000003,0.0019857,0.0036009
2021-04-07,16:23:06.942000,-0.01089,-0.00059959,0.0030588,0.0020252,0.0035308
2021-04-07,16:23:06.944000,-0.010843,-0.000516,0.0030814,0.0020467,0.0034781
2021-04-07,16:23:06.946000,-0.010759999999999999,-0.00044168,0.0030911,0.0020508,0.0034467
2021-04-07,16:23:06.948000,-0.010651,-0.00042136,0.0030870999999999997,0.0020408,0.0033836
2021-04-07,16:23:06.950000,-0.010421,-0.00039792,0.0030583999999999997,0.0019849,0.0032868000000000003
2021-04-07,16:23:06.952000,-0.010038,-0.00033052,0.0030357,0.0019044,0.0031944000000000005
2021-04-07,16:23:06.954000,-0.0096549,-0.00026258,0.0030264,0.0018299,0.0030922
2021-04-07,16:23:06.956000,-0.009311100000000001,-0.00022688,0.0030029,0.0017422999999999998,0.0029715
2021-04-07,16:23:06.958000,-0.009060700000000001,-0.00024056,0.00295,0.0016632,0.0028691
2021-04-07,16:23:06.960000,-0.008968,-0.00028218,0.0028909,0.0016170000000000002,0.0028111
2021-04-07,16:23:06.962000,-0.008952799999999999,-0.000301,0.0028358,0.0015771,0.0027846999999999998
2021-04-07,16:23:06.964000,-0.0089412,-0.00029083,0.0027911999999999998,0.0015719000000000002,0.0027859
2021-04-07,16:23:06.966000,-0.0089322,-0.00029087,0.0027600999999999997,0.0015912,0.0027928000000000002
2021-04-07,16:23:06.968000,-0.0088155,-0.00025860000000000005,0.0027327,0.0015716,0.00277
2021-04-07,16:23:06.970000,-0.008510799999999999,-0.00016519,0.0027180999999999998,0.0015314999999999999,0.0027233
2021-04-07,16:23:06.972000,-0.0082007,-0.00013899,0.0026918000000000003,0.0014627000000000002,0.0026385000000000002
2021-04-07,16:23:06.974000,-0.0078157,-6.7931e-05,0.0026728000000000003,0.0013875,0.002547
2021-04-07,16:23:06.976000,-0.007278799999999999,0.00014227,0.0026896,0.0013635,0.002506
2021-04-07,16:23:06.978000,-0.0069911999999999995,0.00019275,0.0026684,0.0013292,0.0024504
2021-04-07,16:23:06.980000,-0.006997,6.848399999999999e-05,0.002592,0.0012748,0.0023639
2021-04-07,16:23:06.982000,-0.0071408,-0.00011353,0.0024808000000000005,0.0012218,0.00229
2021-04-07,16:23:06.984000,-0.007414399999999999,-0.00037173,0.0023395,0.0011585,0.0022044
2021-04-07,16:23:06.986000,-0.0074893,-0.00047552,0.0022302,0.0011602000000000001,0.0021557
2021-04-07,16:23:06.988000,-0.0072718,-0.00036296,0.0021712,0.0012068,0.0021648
2021-04-07,16:23:06.990000,-0.006972800000000001,-0.00024318,0.0021151,0.0012008,0.0021311
2021-04-07,16:23:06.992000,-0.0066278000000000005,-0.000184,0.0020457,0.0011595999999999998,0.0020454
2021-04-07,16:23:06.994000,-0.0062783000000000005,-0.00015815,0.0019767,0.0011184,0.0019562
2021-04-07,16:23:06.996000,-0.005979,-0.00014399,0.0019058,0.0010849,0.0018617
2021-04-07,16:23:06.998000,-0.005728100000000001,-0.00010154,0.0018451000000000001,0.0010912,0.0018000999999999998
2021-04-07,16:23:07,-0.0055126,3.134e-06,0.0018134,0.0011642000000000002,0.0018064
2021-04-07,16:23:07.002000,-0.0054158999999999995,7.6136e-05,0.0017658,0.00125,0.0018275
2021-04-07,16:23:07.004000,-0.0054859999999999996,3.7516e-05,0.0016855000000000001,0.0013003000000000001,0.0018202000000000001
2021-04-07,16:23:07.006000,-0.005584899999999999,-5.9093000000000005e-05,0.001592,0.001334,0.0017870000000000002
2021-04-07,16:23:07.008000,-0.0056244,-0.00017042,0.0014849,0.001335,0.0017247
2021-04-07,16:23:07.010000,-0.005503,-0.00022621,0.0013995999999999998,0.0013122,0.0016442999999999998
2021-04-07,16:23:07.012000,-0.0051881,-0.00019826,0.0013415999999999999,0.0013020999999999998,0.0015602
2021-04-07,16:23:07.014000,-0.004864899999999999,-0.0001533,0.001292,0.001296,0.0014759999999999999
2021-04-07,16:23:07.016000,-0.004589899999999999,-0.00011748,0.0012546,0.0012904000000000001,0.001393
2021-04-07,16:23:07.018000,-0.0043753,-0.00010185,0.0012200999999999998,0.0013198,0.0013347
2021-04-07,16:23:07.020000,-0.0042986000000000005,-8.5536e-05,0.0011962,0.0013982,0.0013291
2021-04-07,16:23:07.022000,-0.0043006,-5.4898e-05,0.0011708,0.0014747999999999999,0.0013394
2021-04-07,16:23:07.024000,-0.0042958,-1.0262000000000001e-05,0.0011449000000000001,0.0015692,0.0013683
2021-04-07,16:23:07.026000,-0.0042027,0.00012617,0.0011519,0.0017102,0.0014343
2021-04-07,16:23:07.028000,-0.0040241999999999995,0.00025721,0.0011457000000000001,0.0018085,0.0014505000000000002
2021-04-07,16:23:07.030000,-0.0038696,0.000225,0.0010884,0.0018236,0.0013856
2021-04-07,16:23:07.032000,-0.003718,0.00013404,0.0010172,0.0017837,0.0012691
2021-04-07,16:23:07.034000,-0.003572,6.1027e-06,0.00093775,0.0017138,0.0011145999999999999
2021-04-07,16:23:07.036000,-0.0034751999999999995,-0.00016325,0.00085825,0.0016593,0.00098397
2021-04-07,16:23:07.038000,-0.0033539,-0.00019326,0.00083267,0.0016602000000000001,0.00091977
2021-04-07,16:23:07.040000,-0.0032479999999999996,-0.00013327,0.00084775,0.0017192,0.0009115999999999999
2021-04-07,16:23:07.042000,-0.0032381,-9.099600000000001e-05,0.00086053,0.0018100999999999998,0.00094395
2021-04-07,16:23:07.044000,-0.0032621000000000004,-2.8981e-05,0.00087437,0.0018988,0.00098689
2021-04-07,16:23:07.046000,-0.0032604999999999995,-1.2739000000000001e-05,0.00087147,0.0019664,0.0010046
2021-04-07,16:23:07.048000,-0.0031341999999999997,2.9251999999999997e-05,0.00087187,0.0020250999999999997,0.0010016
2021-04-07,16:23:07.050000,-0.0028371,0.00016951,0.00089012,0.0020656,0.00098672
2021-04-07,16:23:07.052000,-0.0024534,0.00031378,0.00088965,0.0020686,0.0009455
2021-04-07,16:23:07.054000,-0.0020131,0.00047093,0.00089755,0.0020636999999999995,0.00090122
2021-04-07,16:23:07.056000,-0.0017218,0.00051997,0.00088899,0.0020429000000000003,0.00083624
2021-04-07,16:23:07.058000,-0.0017367,0.00036837,0.00081599,0.0019859,0.00072788
2021-04-07,16:23:07.060000,-0.0018675999999999999,0.00014847,0.00072183,0.0019424,0.00063957
2021-04-07,16:23:07.062000,-0.0020870999999999997,-8.063100000000001e-05,0.00061896,0.0019282,0.00057965
2021-04-07,16:23:07.064000,-0.0022811,-0.00017213,0.00054504,0.0019573,0.00056453
2021-04-07,16:23:07.066000,-0.0022244,-7.528399999999999e-05,0.00052352,0.0020317,0.00060847
2021-04-07,16:23:07.068000,-0.0021069,-1.3770999999999999e-05,0.00047413,0.0020546999999999996,0.00060618
2021-04-07,16:23:07.070000,-0.0018637999999999999,8.7007e-05,0.00043493,0.0020531,0.00057319
2021-04-07,16:23:07.072000,-0.0013285,0.00036498,0.00046735,0.002102,0.00058491
2021-04-07,16:23:07.074000,-0.0009152999999999999,0.00052645,0.00046278,0.0021087,0.00055675
2021-04-07,16:23:07.076000,-0.00070621,0.00052565,0.00040481,0.0020671999999999995,0.00048327
2021-04-07,16:23:07.078000,-0.00051673,0.00056095,0.00036029,0.0020499000000000003,0.00045092
2021-04-07,16:23:07.080000,-0.00052951,0.00052383,0.00030072,0.0020432000000000002,0.00044037
2021-04-07,16:23:07.082000,-0.00059856,0.00051214,0.00025839999999999994,0.0020710999999999998,0.00044531
2021-04-07,16:23:07.084000,-0.00068151,0.00050902,0.00021248,0.0020921,0.0004516999999999999
2021-04-07,16:23:07.086000,-0.00097789,0.00026660000000000003,8.565399999999999e-05,0.0020196999999999997,0.00040493
2021-04-07,16:23:07.088000,-0.0010478,0.00014584,-3.3049e-06,0.0019519000000000001,0.00035812
2021-04-07,16:23:07.090000,-0.00079277,0.00024592,-2.6535999999999998e-05,0.0019234999999999999,0.00032301
2021-04-07,16:23:07.092000,-0.00059667,0.00023001,-8.2291e-05,0.0018291,0.00024033
2021-04-07,16:23:07.094000,-0.00041094,0.00017868,-0.00013683,0.0016987999999999999,0.00013626
2021-04-07,16:23:07.096000,-0.00027745,0.00010293,-0.00018798,0.0015906,4.2586e-05
2021-04-07,16:23:07.098000,-0.00027875,-1.1044000000000001e-05,-0.00024306,0.0014998,-2.6629000000000002e-05
2021-04-07,16:23:07.100000,-0.00030605,-3.816e-05,-0.00026064,0.0014468,-4.7516000000000004e-05
2021-04-07,16:23:07.102000,-0.00037436,-2.0191e-05,-0.00026085,0.001442,-1.5856e-05
2021-04-07,16:23:07.104000,-0.00047918,-1.712e-05,-0.00027675,0.0014423,2.2275999999999998e-05
2021-04-07,16:23:07.106000,-0.00054126,-3.7838e-05,-0.00030206,0.0014114000000000002,3.4813e-05
2021-04-07,16:23:07.108000,-0.00045847,6.212899999999999e-06,-0.00030965,0.0013777999999999998,5.1812e-05
2021-04-07,16:23:07.110000,-0.00022497,0.00011675,-0.00031269,0.001314,3.6031e-05
2021-04-07,16:23:07.112000,5.2296e-05,0.00017726,-0.00032654,0.0011977000000000001,-3.6148e-05
2021-04-07,16:23:07.114000,0.00028756,0.0001751,-0.00034528,0.0010871,-0.00010892
2021-04-07,16:23:07.116000,0.00046639999999999995,0.00018053,-0.00035582,0.00099142,-0.0001636
2021-04-07,16:23:07.118000,0.00062279,0.00024932,-0.00033253,0.00092813,-0.00018030000000000002
2021-04-07,16:23:07.120000,0.00064891,0.00027057,-0.00031154,0.00089592,-0.00016146
2021-04-07,16:23:07.122000,0.0005978,0.00030991,-0.00028725,0.00088952,-0.00011193
2021-04-07,16:23:07.124000,0.00062403,0.00045239,-0.00024025,0.00090739,-3.1253e-05
2021-04-07,16:23:07.126000,0.00059976,0.00048347,-0.00023184,0.0008798,7.481699999999999e-07
2021-04-07,16:23:07.128000,0.00059534,0.00047384,-0.00024074,0.00083619,-1.2162e-05
2021-04-07,16:23:07.130000,0.00069563,0.00045926,-0.00025704,0.0007507999999999999,-5.816e-05
2021-04-07,16:23:07.132000,0.00078418,0.00032719,-0.00030458,0.00057223,-0.00018449
2021-04-07,16:23:07.134000,0.00089232,0.00022640000000000003,-0.00033695,0.00042842,-0.00028904
2021-04-07,16:23:07.136000,0.00096888,0.0001367,-0.00036199,0.00031937,-0.00037581
2021-04-07,16:23:07.138000,0.00098874,4.992e-05,-0.00037343,0.00022611,-0.00044059
2021-04-07,16:23:07.140000,0.00099595,8.675100000000001e-05,-0.00034427,0.00022792,-0.00036694
2021-04-07,16:23:07.142000,0.00096548,0.00017744,-0.00031016,0.00026786,-0.00035444
2021-04-07,16:23:07.144000,0.00094737,0.00026546,-0.0002777,0.00030113,-0.00037177
2021-04-07,16:23:07.146000,0.00095534,0.00035207,-0.00024794,0.00032997,-0.00021527
2021-04-07,16:23:07.148000,0.001025,0.00041521,-0.00023258,0.00031658,-0.00015067
2021-04-07,16:23:07.150000,0.0011887,0.00043788,-0.00023863,0.00025833,-0.00022264
2021-04-07,16:23:07.152000,0.0013679,0.00043222,-0.00026748,0.00016772,-0.00027472
2021-04-07,16:23:07.154000,0.0015074,0.00038332,-0.00029644,5.8454e-05,-0.00037397
2021-04-07,16:23:07.156000,0.0015937000000000002,0.00030158,-0.00032459,-3.0836999999999996e-05,-0.00044785
2021-04-07,16:23:07.158000,0.0016378,0.00028861,-0.00033531,-6.4025e-05,-0.00044842
2021-04-07,16:23:07.160000,0.0016295,0.00032784,-0.00031048,-4.4717e-05,-0.00043618
2021-04-07,16:23:07.162000,0.0015905,0.00040901,-0.0002744,1.6283e-05,-0.00036562
2021-04-07,16:23:07.164000,0.0015765999999999998,0.00055211,-0.00023952,9.848e-05,-0.00026680000000000003
2021-04-07,16:23:07.166000,0.0015767,0.00062861,-0.00022487,0.0001453,-0.00022319
2021-04-07,16:23:07.168000,0.0016047999999999998,0.00063199,-0.00023229,0.00014055,-0.00020997
2021-04-07,16:23:07.170000,0.0016453,0.00058327,-0.00025941,7.5283e-05,-0.00025202
2021-04-07,16:23:07.172000,0.0016659000000000003,0.00043508,-0.0003252,-4.6011000000000004e-05,-0.000373
2021-04-07,16:23:07.174000,0.0017177,0.00030639,-0.00038078,-0.00013391,-0.00046631
2021-04-07,16:23:07.176000,0.0017329000000000001,0.00021128,-0.00041314,-0.00018573,-0.00052869
2021-04-07,16:23:07.178000,0.0016762999999999997,0.00011519,-0.00045221,-0.00023279,-0.00058262
2021-04-07,16:23:07.180000,0.0016408000000000002,0.00012975,-0.00044683,-0.00019619,-0.00054389
2021-04-07,16:23:07.182000,0.0015092,0.00015741,-0.00042931,-0.00012419,-0.00046939
2021-04-07,16:23:07.184000,0.0012923,0.00011549,-0.00045285,-9.523299999999999e-05,-0.0004335
2021-04-07,16:23:07.186000,0.0012237,0.00014287,-0.00045118,-3.4693e-05,-0.00037504
2021-04-07,16:23:07.187000,-0.00021468,4.6926000000000004e-05,-0.001125,0.00044012,0.00013169
2021-04-07,16:23:07.189000,-0.017265,0.00037917,0.0039656,0.0059548000000000005,0.0060231
2021-04-07,16:23:07.191000,-0.0034568000000000003,0.00042501,3.9406e-05,0.0016695999999999998,0.0014495999999999999
2021-04-07,16:23:07.193000,-0.011603,0.00069785,0.0025552,0.0043673,0.0043405
2021-04-07,16:23:07.195000,-0.0080527,0.00053937,0.0014578,0.0031623000000000003,0.003055
2021-04-07,16:23:07.197000,-0.0080584,0.00038798,0.0013567,0.0030558000000000004,0.0029531999999999996
2021-04-07,16:23:07.199000,-0.010466,0.00026888,0.0019285999999999997,0.0037189,0.0036677
2021-04-07,16:23:07.201000,-0.0080577,0.00016057,0.0011192,0.0028953000000000004,0.0027945
2021-04-07,16:23:07.203000,-0.010214,0.00030927,0.0017725999999999998,0.003658,0.0036295000000000003
2021-04-07,16:23:07.205000,-0.009165799999999998,0.00040684,0.0014675,0.0033926000000000004,0.0033284
2021-04-07,16:23:07.207000,-0.009284200000000001,0.00041238,0.0014640999999999999,0.0034216999999999997,0.0033494999999999996
2021-04-07,16:23:07.209000,-0.0096426,0.00052557,0.0016349000000000001,0.0035889000000000003,0.0035562
2021-04-07,16:23:07.211000,-0.008591,0.00064542,0.001408,0.0033101999999999997,0.0032634
2021-04-07,16:23:07.213000,-0.009282700000000001,0.00052256,0.0015402,0.0034295000000000003,0.0033914
2021-04-07,16:23:07.215000,-0.0089955,0.00028532,0.0013366,0.0031885999999999998,0.0031474
2021-04-07,16:23:07.217000,-0.0092613,0.00011591,0.0013074000000000002,0.0031464,0.0031173999999999998
2021-04-07,16:23:07.219000,-0.0096097,-1.0347000000000001e-05,0.0013008,0.0031647,0.0031531999999999997
2021-04-07,16:23:07.221000,-0.0095306,1.7416999999999998e-06,0.0012249000000000001,0.0031518,0.0031358000000000002
2021-04-07,16:23:07.223000,-0.0098432,9.828e-05,0.0012994000000000003,0.0033001,0.0032941000000000003
2021-04-07,16:23:07.225000,-0.0097258,0.00017104,0.0012656,0.0032835,0.0033058
2021-04-07,16:23:07.227000,-0.0097792,0.00019328,0.0012657,0.0032852,0.0033374000000000003
2021-04-07,16:23:07.229000,-0.0097218,0.00020355,0.0012505,0.0032530000000000002,0.0033216
2021-04-07,16:23:07.231000,-0.009423200000000001,0.0002878,0.0012342,0.0031778,0.0032689999999999998
2021-04-07,16:23:07.233000,-0.0092612,0.00035648,0.0012372,0.0031313,0.0032553000000000005
2021-04-07,16:23:07.235000,-0.0090779,0.0004056,0.0012212,0.0030761,0.0032330999999999996
2021-04-07,16:23:07.237000,-0.0090888,0.00042045,0.0012272000000000001,0.0030476999999999995,0.0032428000000000005
2021-04-07,16:23:07.239000,-0.009267000000000001,0.00033357,0.0011887,0.0030136,0.0032399
2021-04-07,16:23:07.241000,-0.0094721,0.00029683,0.0011780999999999999,0.0030316999999999996,0.0032887
2021-04-07,16:23:07.243000,-0.0096147,0.00031506,0.0011878,0.0030570999999999997,0.0033564999999999997
2021-04-07,16:23:07.245000,-0.009650399999999998,0.00033039,0.0011743,0.00305,0.0033864000000000003
2021-04-07,16:23:07.247000,-0.0096488,0.00038128,0.0011866,0.0030556,0.0034139
2021-04-07,16:23:07.249000,-0.0095831,0.00036899,0.001174,0.0029796999999999996,0.0033689999999999996
2021-04-07,16:23:07.251000,-0.009428299999999999,0.00034229,0.0011598,0.0028631,0.0033003
2021-04-07,16:23:07.253000,-0.0092815,0.00034094,0.0011609,0.0027718000000000005,0.0032567
2021-04-07,16:23:07.255000,-0.0093238,0.00021039,0.0011159,0.0026447,0.0031794
2021-04-07,16:23:07.257000,-0.009402200000000001,0.00012595,0.0010947,0.0025823,0.0031531
2021-04-07,16:23:07.259000,-0.0094435,0.00017604,0.0011174000000000002,0.0026076999999999997,0.0032083
2021-04-07,16:23:07.261000,-0.0096895,0.00010831,0.0010939,0.0025941999999999996,0.0032486
2021-04-07,16:23:07.263000,-0.0098805,9.117399999999999e-05,0.0010804,0.0026094,0.0033018
2021-04-07,16:23:07.265000,-0.00984,0.00024638,0.0011172,0.0026634000000000002,0.0033756999999999997
2021-04-07,16:23:07.267000,-0.0097958,0.00030727,0.0011248,0.002646,0.0033983000000000004
2021-04-07,16:23:07.269000,-0.0096609,0.00033519999999999996,0.0011244000000000002,0.0025883000000000004,0.0033832999999999997
2021-04-07,16:23:07.271000,-0.009464499999999999,0.00041576,0.0011425,0.0025094,0.003355
2021-04-07,16:23:07.273000,-0.0092941,0.00047881,0.0011638,0.0024198,0.0033305999999999995
2021-04-07,16:23:07.275000,-0.0091329,0.00052102,0.001187,0.0023474,0.0033130000000000004
2021-04-07,16:23:07.277000,-0.009312200000000001,0.00034034,0.001145,0.0022434,0.0032523000000000005
2021-04-07,16:23:07.279000,-0.0097821,-6.0782000000000005e-06,0.0010594,0.0021357,0.0031877
2021-04-07,16:23:07.281000,-0.010131,-0.00019527,0.0010218,0.0020888,0.0031888999999999997
2021-04-07,16:23:07.283000,-0.010373,-0.00027495,0.0010122999999999998,0.0020781999999999997,0.0032224000000000003
2021-04-07,16:23:07.285000,-0.010498,-0.00027606,0.0010252,0.0020794,0.0032624000000000004
2021-04-07,16:23:07.287000,-0.010386,-0.00013844,0.0010715,0.0020842,0.0033064
2021-04-07,16:23:07.289000,-0.010129,2.2536999999999998e-05,0.0011347999999999998,0.0020763,0.0033350999999999997
2021-04-07,16:23:07.291000,-0.0098146,0.00017943,0.0012014,0.0020431,0.0033414
2021-04-07,16:23:07.293000,-0.0095736,0.00028928,0.0012277000000000002,0.0019887,0.0033217
2021-04-07,16:23:07.295000,-0.0094744,0.00033029,0.0012534,0.001959,0.0033133000000000004
2021-04-07,16:23:07.297000,-0.0094447,0.00037375,0.0013052,0.0019599,0.0033321999999999996
2021-04-07,16:23:07.299000,-0.0095869,0.00033664,0.0013285,0.0019655000000000002,0.0033499000000000003
2021-04-07,16:23:07.301000,-0.009887700000000001,0.00023333,0.0013411,0.0020011,0.0033824
2021-04-07,16:23:07.303000,-0.010154999999999999,0.00011776,0.0013177999999999998,0.0020071999999999998,0.003393
2021-04-07,16:23:07.305000,-0.010385,-4.2248999999999995e-05,0.0012703,0.0019532,0.0033615000000000003
2021-04-07,16:23:07.307000,-0.010483,-0.00011592,0.0012812000000000001,0.0019337,0.0033459
2021-04-07,16:23:07.309000,-0.010376,-9.711399999999999e-05,0.0012899,0.0019081,0.0033233000000000004
2021-04-07,16:23:07.311000,-0.010195000000000001,-7.7582e-05,0.0012886,0.0018507999999999999,0.0032836999999999996
2021-04-07,16:23:07.313000,-0.010018,-3.1548000000000004e-05,0.0013254000000000002,0.0018233000000000001,0.0032562
2021-04-07,16:23:07.315000,-0.0098684,5.9626e-05,0.0013672,0.0018259,0.0032585
2021-04-07,16:23:07.317000,-0.0097573,0.00018832,0.0014269999999999999,0.0018832999999999999,0.0033164
2021-04-07,16:23:07.319000,-0.0097773,0.00027061,0.0014859,0.0019612,0.0033942
2021-04-07,16:23:07.321000,-0.0098925,0.00035988,0.0015275,0.0020439,0.0034872
2021-04-07,16:23:07.323000,-0.0099444,0.00049608,0.0015749,0.0021583,0.0035859999999999998
2021-04-07,16:23:07.325000,-0.009988200000000001,0.00052284,0.0015871,0.0022137,0.0036201999999999996
2021-04-07,16:23:07.327000,-0.010047,0.00044744,0.0015562999999999998,0.002179,0.0035869
2021-04-07,16:23:07.329000,-0.01013,0.00026436,0.0014944000000000001,0.0020870999999999997,0.0034917000000000004
2021-04-07,16:23:07.331000,-0.010232,1.0531e-05,0.0014138,0.0019611,0.0033588
2021-04-07,16:23:07.333000,-0.010237999999999999,-0.00012858,0.0013647,0.0018564,0.0032583
2021-04-07,16:23:07.335000,-0.010178,-0.00013401,0.0013805,0.0018315999999999999,0.0032524
2021-04-07,16:23:07.337000,-0.010062999999999999,3.2832e-05,0.0014657,0.0019225000000000002,0.0033497
2021-04-07,16:23:07.339000,-0.0099896,0.00025173,0.0015425999999999999,0.0020347,0.0034455999999999996
2021-04-07,16:23:07.341000,-0.010022,0.00039581,0.0015999,0.0021455,0.0035461
2021-04-07,16:23:07.343000,-0.0099304,0.00066281,0.0017090999999999999,0.0023228999999999997,0.0037090000000000005
2021-04-07,16:23:07.345000,-0.0099128,0.00078104,0.0017527,0.0024056999999999998,0.0037731
2021-04-07,16:23:07.347000,-0.010177,0.00050303,0.0016673999999999999,0.0023292,0.0036808
2021-04-07,16:23:07.349000,-0.010417000000000001,0.00018866,0.0015494000000000003,0.0022015999999999997,0.0035305
2021-04-07,16:23:07.351000,-0.010596,-0.00012403,0.001415,0.0020244,0.0033531999999999998
2021-04-07,16:23:07.353000,-0.010712000000000001,-0.00038014,0.0013433,0.0019136,0.0032501999999999995
2021-04-07,16:23:07.355000,-0.010654,-0.00035048,0.0013829,0.0019486,0.0032658
2021-04-07,16:23:07.357000,-0.010588,-0.00022437,0.0014392,0.0020178,0.0033201999999999997
2021-04-07,16:23:07.359000,-0.010614,-0.00011082,0.0014993,0.0021104,0.0034115
2021-04-07,16:23:07.361000,-0.010721,1.8519e-07,0.0015652,0.0022344,0.0035205999999999996
2021-04-07,16:23:07.363000,-0.010847,4.7193999999999996e-05,0.0016034000000000003,0.0023323,0.0035988
2021-04-07,16:23:07.365000,-0.010903,8.5011e-05,0.0016292000000000001,0.0023945,0.0036539000000000003
2021-04-07,16:23:07.367000,-0.010897,0.00011394,0.0016485,0.0024246,0.003667
2021-04-07,16:23:07.369000,-0.010801999999999999,0.00013164,0.0016602999999999998,0.0024168,0.0036366
2021-04-07,16:23:07.371000,-0.010637,0.00015781,0.0016749000000000002,0.0023897,0.0036043
2021-04-07,16:23:07.373000,-0.010514,0.00015897,0.0016942,0.0023738,0.0035705
2021-04-07,16:23:07.375000,-0.010473999999999999,0.00015305,0.0017172999999999997,0.0023833,0.0035439
2021-04-07,16:23:07.377000,-0.010512,0.00015122,0.0017446999999999999,0.0024333000000000002,0.0035608000000000002
2021-04-07,16:23:07.379000,-0.010651,0.00014946,0.0017735,0.002512,0.0036126999999999995
2021-04-07,16:23:07.381000,-0.010851000000000001,0.00014917,0.0017989999999999998,0.002592,0.0036753999999999997
2021-04-07,16:23:07.383000,-0.011014,0.00014479,0.0018206,0.0026739,0.0037388000000000005
2021-04-07,16:23:07.385000,-0.011119,0.00013864,0.0018256,0.0027281999999999996,0.0037668
2021-04-07,16:23:07.387000,-0.011113,0.00013423,0.0018178,0.0027374,0.0037499
2021-04-07,16:23:07.389000,-0.010986,0.00013593,0.0018199000000000002,0.0027245,0.0037178000000000003
2021-04-07,16:23:07.391000,-0.01087,0.00013275,0.0018296,0.0026986000000000002,0.0036699
2021-04-07,16:23:07.393000,-0.010747,0.00014535,0.0018427,0.0026759,0.0036211999999999998
2021-04-07,16:23:07.395000,-0.010648000000000001,0.00016165,0.0018585000000000001,0.0026814,0.0036159
2021-04-07,16:23:07.397000,-0.010694,0.0001649,0.0018817,0.0027337,0.0036497
2021-04-07,16:23:07.399000,-0.010837000000000001,0.00016459,0.0019010000000000001,0.002797,0.0036868
2021-04-07,16:23:07.401000,-0.011023,0.00014736,0.0019071,0.0028584,0.0037404000000000005
2021-04-07,16:23:07.403000,-0.011189,0.00015542,0.0019207999999999999,0.0029390999999999996,0.0038053000000000006
2021-04-07,16:23:07.405000,-0.011298,0.00012932,0.0019165,0.0029631,0.0038223
2021-04-07,16:23:07.407000,-0.011146,0.00024716,0.0019523,0.0029953000000000002,0.0038556
2021-04-07,16:23:07.409000,-0.010653,0.00066927,0.0020816,0.0031153,0.0039553
2021-04-07,16:23:07.411000,-0.010346,0.00085758,0.0021373,0.0031446,0.003975
2021-04-07,16:23:07.413000,-0.010361,0.00070198,0.0020997,0.0030816999999999997,0.0038694000000000003
2021-04-07,16:23:07.415000,-0.010643000000000001,0.00037154,0.0020204,0.0029723,0.0037146
2021-04-07,16:23:07.417000,-0.011295,-0.00023159,0.0018524999999999998,0.0027855,0.0035621000000000003
2021-04-07,16:23:07.419000,-0.011689,-0.00048133,0.0017969000000000001,0.0027681,0.0035507
2021-04-07,16:23:07.421000,-0.011617,-0.00019439,0.0019131,0.0029376999999999997,0.0036991999999999997
2021-04-07,16:23:07.423000,-0.011609999999999999,-2.8644000000000002e-05,0.0019816,0.0030344,0.0038207999999999996
2021-04-07,16:23:07.425000,-0.011674,-1.9217999999999998e-05,0.0019975,0.0030692,0.0038546999999999995
2021-04-07,16:23:07.427000,-0.011686,-1.6009000000000002e-05,0.0020155,0.0030929,0.0038489000000000006
2021-04-07,16:23:07.429000,-0.011629,-4.1237e-05,0.0020202,0.0030758,0.0038115000000000002
2021-04-07,16:23:07.431000,-0.011465000000000001,-1.7308e-05,0.0020385,0.0030545000000000004,0.0037783
2021-04-07,16:23:07.433000,-0.011314,3.9654000000000004e-05,0.0020800000000000003,0.0030523000000000004,0.0037736999999999996
2021-04-07,16:23:07.435000,-0.011212999999999999,0.00012222,0.0021365,0.0030829,0.0037906999999999997
2021-04-07,16:23:07.437000,-0.011201000000000001,0.000197,0.002187,0.0031542,0.0038412
2021-04-07,16:23:07.439000,-0.011373999999999999,0.00019597,0.0022202,0.0032398,0.0039088000000000005
2021-04-07,16:23:07.441000,-0.011597,0.00018799,0.0022568,0.0033302,0.0039732
2021-04-07,16:23:07.443000,-0.011798000000000001,0.00016115,0.0022775,0.0033992,0.0040212
2021-04-07,16:23:07.445000,-0.011999,7.427100000000001e-05,0.0022695999999999997,0.0034256,0.0040303000000000005
2021-04-07,16:23:07.447000,-0.012027,4.8694e-05,0.0022858,0.0034461999999999995,0.0040162
2021-04-07,16:23:07.449000,-0.011925,6.445399999999999e-05,0.0023173,0.0034530999999999997,0.0039881
2021-04-07,16:23:07.451000,-0.011765000000000001,0.00012697,0.002369,0.0034667,0.0039815
2021-04-07,16:23:07.453000,-0.011491,0.00032333,0.0024760999999999997,0.0035305999999999996,0.004024300000000001
2021-04-07,16:23:07.455000,-0.011379,0.00042515,0.0025551,0.0035972,0.0040542
2021-04-07,16:23:07.457000,-0.01154,0.00035763,0.0025828,0.0036586999999999995,0.0040686
2021-04-07,16:23:07.459000,-0.011804,0.00027474,0.0026027,0.0037174,0.004094400000000001
2021-04-07,16:23:07.461000,-0.01217,0.00012212,0.002595,0.003759,0.004109399999999999
2021-04-07,16:23:07.463000,-0.012499,-1.4352e-05,0.0025933,0.0038226999999999996,0.0041335
2021-04-07,16:23:07.465000,-0.012578,1.8408e-05,0.0026355999999999997,0.0039019,0.0041833
2021-04-07,16:23:07.467000,-0.012502,9.248299999999999e-05,0.0026768,0.0039468,0.0042128999999999995
2021-04-07,16:23:07.469000,-0.012448,9.3911e-05,0.0026899999999999997,0.0039448,0.0041835
2021-04-07,16:23:07.471000,-0.012388,6.1769e-05,0.0026988000000000003,0.0039254,0.004128499999999999
2021-04-07,16:23:07.473000,-0.012306999999999998,4.5134e-05,0.0027105999999999996,0.003926300000000001,0.004104699999999999
2021-04-07,16:23:07.475000,-0.012315999999999999,5.1651000000000004e-05,0.0027384,0.0039664999999999995,0.0041238
2021-04-07,16:23:07.477000,-0.012348999999999999,0.00013576,0.002805,0.0040606,0.0041804
2021-04-07,16:23:07.479000,-0.012308,0.00036911,0.0029121,0.004234399999999999,0.0043198
2021-04-07,16:23:07.481000,-0.012332,0.00059544,0.0030195,0.0044318000000000005,0.0044981000000000005
2021-04-07,16:23:07.483000,-0.012508,0.00060637,0.0030321,0.0045308,0.0045514
2021-04-07,16:23:07.485000,-0.012823,0.00039289,0.0029554000000000004,0.0045256,0.0044932999999999996
2021-04-07,16:23:07.487000,-0.01318,6.2946e-05,0.0028818000000000003,0.0044563,0.0044018
2021-04-07,16:23:07.489000,-0.013328999999999999,-0.00016099,0.0028351999999999995,0.004374899999999999,0.0042953999999999996
2021-04-07,16:23:07.491000,-0.013228,-0.00017333,0.0028366999999999997,0.0043739,0.0042631
2021-04-07,16:23:07.493000,-0.013101,-0.00010783,0.0028862,0.004413,0.0042802
2021-04-07,16:23:07.495000,-0.013056,-3.573e-05,0.0029445,0.004448399999999999,0.0042999
2021-04-07,16:23:07.497000,-0.013090000000000001,3.0174e-05,0.0030024,0.0045386,0.0043693000000000004
2021-04-07,16:23:07.499000,-0.01326,5.1213e-05,0.0030531,0.004659,0.004451
2021-04-07,16:23:07.501000,-0.013486000000000001,7.5228e-05,0.0031030999999999997,0.004768,0.0045308
2021-04-07,16:23:07.503000,-0.013632,0.00012492,0.0031521,0.0048668,0.0046153
2021-04-07,16:23:07.505000,-0.013718000000000001,0.00014905,0.003179,0.004928899999999999,0.0046532
2021-04-07,16:23:07.507000,-0.013684,0.00018452,0.0031993000000000004,0.0049528,0.004656399999999999
2021-04-07,16:23:07.509000,-0.013537,0.00024446,0.0032247,0.0049539,0.0046486999999999995
2021-04-07,16:23:07.511000,-0.013423,0.00027605,0.0032546999999999997,0.004944,0.0046231
2021-04-07,16:23:07.513000,-0.013333000000000001,0.00030816,0.0032939999999999996,0.0049459,0.004608699999999999
2021-04-07,16:23:07.515000,-0.013322,0.00032381,0.0033220999999999997,0.004961,0.0046225
2021-04-07,16:23:07.517000,-0.013506,0.00027739,0.0033375,0.0049954,0.0046479
2021-04-07,16:23:07.519000,-0.013784000000000001,0.00021336,0.0033588,0.0050490000000000005,0.004693600000000001
2021-04-07,16:23:07.521000,-0.01408,0.00013837,0.0033689,0.0050988,0.0047523
2021-04-07,16:23:07.523000,-0.014362,7.0382e-05,0.0033634999999999997,0.0051406,0.004796
2021-04-07,16:23:07.525000,-0.014480000000000002,7.853600000000001e-05,0.0033729999999999997,0.0051765,0.0048411999999999995
2021-04-07,16:23:07.527000,-0.014436000000000001,0.00012499,0.0033951999999999997,0.0051942,0.0048716
2021-04-07,16:23:07.529000,-0.014366,0.00014945,0.0034119999999999997,0.0051775,0.0048493
2021-04-07,16:23:07.531000,-0.014279,0.00016707,0.0034308,0.005148600000000001,0.0048171
2021-04-07,16:23:07.533000,-0.0142,0.00019280000000000002,0.0034585,0.005149,0.0048145
2021-04-07,16:23:07.535000,-0.014195,0.00024081,0.0034986999999999996,0.005176699999999999,0.0048404
2021-04-07,16:23:07.537000,-0.014287000000000001,0.00029484,0.0035497,0.0052353,0.0049116
2021-04-07,16:23:07.539000,-0.014505,0.00031234,0.0035931999999999995,0.0053181999999999995,0.0050115
2021-04-07,16:23:07.541000,-0.014797999999999999,0.00028547,0.0036180999999999995,0.005382199999999999,0.005080100000000001
2021-04-07,16:23:07.543000,-0.015026,0.00024945,0.0036374000000000003,0.0054287,0.0051283
2021-04-07,16:23:07.545000,-0.015146000000000001,0.00023945,0.0036580999999999996,0.0054662,0.0051775
2021-04-07,16:23:07.547000,-0.015196000000000001,0.00023552,0.0036850000000000003,0.0054802,0.0051839
2021-04-07,16:23:07.549000,-0.015086000000000002,0.00029327,0.003737,0.0054868,0.0051773
2021-04-07,16:23:07.551000,-0.014828999999999998,0.00046674,0.0038155999999999997,0.0055214,0.0052118
2021-04-07,16:23:07.553000,-0.014688,0.00058449,0.0038909999999999995,0.0055731999999999995,0.005248600000000001
2021-04-07,16:23:07.555000,-0.014726,0.0005901,0.0039422,0.0056191,0.0052762
2021-04-07,16:23:07.557000,-0.014825,0.00065679,0.0040118,0.0057074,0.0053515
2021-04-07,16:23:07.559000,-0.015059000000000001,0.00069298,0.0040833,0.0058077,0.0054504
2021-04-07,16:23:07.561000,-0.015483000000000002,0.00049864,0.0040624,0.0058314,0.0054692000000000005
2021-04-07,16:23:07.563000,-0.015951,0.00022029,0.0040024,0.0058288,0.005437399999999999
2021-04-07,16:23:07.565000,-0.016295,2.9783000000000003e-05,0.0039854,0.0058299,0.005432800000000001
2021-04-07,16:23:07.567000,-0.016422,-8.052e-05,0.0039873,0.005822399999999999,0.0054115000000000005
2021-04-07,16:23:07.569000,-0.016345,-6.8684e-05,0.004016,0.00586,0.0053877
2021-04-07,16:23:07.571000,-0.016193,3.8794e-05,0.004078,0.0059265,0.005405699999999999
2021-04-07,16:23:07.573000,-0.01608,0.00012934,0.004144,0.0059843000000000006,0.0054335
2021-04-07,16:23:07.575000,-0.016065,0.00020103,0.0042068,0.0060772,0.005483600000000001
2021-04-07,16:23:07.577000,-0.016216,0.00024172,0.004264199999999999,0.006206199999999999,0.0055631
2021-04-07,16:23:07.579000,-0.016488,0.00023534,0.004310199999999999,0.0063304,0.0056489
2021-04-07,16:23:07.581000,-0.016766999999999997,0.00021672,0.004343199999999999,0.006456,0.005730600000000001
2021-04-07,16:23:07.583000,-0.01705,0.00016755,0.0043619,0.0065705,0.0057875
2021-04-07,16:23:07.585000,-0.017232,0.00014087,0.0043803,0.0066483,0.0058332
2021-04-07,16:23:07.587000,-0.017234,0.00016646,0.0044075,0.006705199999999999,0.0058563999999999995
2021-04-07,16:23:07.589000,-0.017213,0.00016434,0.0044309,0.0067442,0.0058341999999999995
2021-04-07,16:23:07.591000,-0.0172,0.00014989,0.0044588,0.006766500000000001,0.005809399999999999
2021-04-07,16:23:07.593000,-0.017187,0.00014403,0.004502,0.0068081999999999995,0.0058104
2021-04-07,16:23:07.595000,-0.017279,0.0001385,0.0045579999999999996,0.0068854,0.0058444
2021-04-07,16:23:07.597000,-0.017477,0.00013787,0.0046248999999999995,0.0069814,0.005913
2021-04-07,16:23:07.599000,-0.017763,0.00012748,0.004688899999999999,0.007104500000000001,0.0060072
2021-04-07,16:23:07.601000,-0.018068,0.00012532,0.0047508,0.007240899999999999,0.0061034
2021-04-07,16:23:07.603000,-0.018281,0.00013333,0.0048133,0.00735,0.006178100000000001
2021-04-07,16:23:07.605000,-0.0184,0.00015597,0.0048662,0.0074369,0.0062426
2021-04-07,16:23:07.607000,-0.018462,0.00014898,0.0049032,0.0074797,0.006254
2021-04-07,16:23:07.609000,-0.018481,7.1325e-05,0.0049243,0.0074681,0.006199199999999999
2021-04-07,16:23:07.611000,-0.018484999999999998,3.2066e-05,0.0049582,0.0074698,0.0061765
2021-04-07,16:23:07.613000,-0.018506,5.2301000000000006e-05,0.0050162,0.0075072,0.0061998999999999995
2021-04-07,16:23:07.615000,-0.018574,6.9599e-05,0.0050785,0.007563299999999999,0.0062375
2021-04-07,16:23:07.617000,-0.018763,8.5285e-05,0.005150899999999999,0.0076548,0.0063118
2021-04-07,16:23:07.619000,-0.019073,7.9211e-05,0.0052222,0.007771600000000001,0.006403399999999999
2021-04-07,16:23:07.621000,-0.01935,7.129800000000001e-05,0.0052792,0.0078765,0.006495900000000001
2021-04-07,16:23:07.623000,-0.019573,7.824399999999999e-05,0.005337,0.007962899999999998,0.006589399999999999
2021-04-07,16:23:07.625000,-0.019752000000000002,7.600699999999999e-05,0.005388,0.0080174,0.0066426
2021-04-07,16:23:07.627000,-0.019794,8.5121e-05,0.005429,0.0080266,0.006653699999999999
2021-04-07,16:23:07.629000,-0.019746,0.00010465,0.005469300000000001,0.0080191,0.006656399999999999
2021-04-07,16:23:07.631000,-0.019718,0.00011417,0.005513399999999999,0.0080112,0.006652
2021-04-07,16:23:07.633000,-0.019761,0.00010354,0.0055621,0.0080093,0.006650700000000001
2021-04-07,16:23:07.635000,-0.019891,7.1794e-05,0.0056069,0.0080365,0.006680800000000001
2021-04-07,16:23:07.637000,-0.020117,5.7515e-05,0.0056603,0.0081006,0.0067533
2021-04-07,16:23:07.639000,-0.020452,4.4537e-05,0.005716399999999999,0.0081826,0.0068528999999999994
2021-04-07,16:23:07.641000,-0.020778,2.1447e-05,0.005758699999999999,0.0082553,0.0069525
2021-04-07,16:23:07.643000,-0.021005000000000003,4.9231000000000003e-05,0.0058112,0.0083201,0.0070402
2021-04-07,16:23:07.645000,-0.021159,7.7164e-05,0.0058633999999999995,0.008354700000000001,0.007098899999999999
2021-04-07,16:23:07.647000,-0.021179,9.672399999999999e-05,0.0059082,0.008346600000000001,0.007130199999999999
2021-04-07,16:23:07.649000,-0.021093999999999998,0.00019155,0.0059834,0.008347,0.007162300000000001
2021-04-07,16:23:07.651000,-0.021009,0.00029889,0.0060832,0.008373100000000001,0.0071863
2021-04-07,16:23:07.653000,-0.020903,0.00040762,0.0061990000000000005,0.0084586,0.0072225
2021-04-07,16:23:07.655000,-0.020927,0.00050044,0.0063223,0.0085884,0.0072887
2021-04-07,16:23:07.657000,-0.021233000000000002,0.00042845,0.0064149,0.0086769,0.007323100000000001
2021-04-07,16:23:07.659000,-0.02171,0.00022196,0.006476100000000001,0.0087562,0.0073297
2021-04-07,16:23:07.661000,-0.022231,-2.0234999999999998e-06,0.0065264,0.008834999999999999,0.0073471000000000005
2021-04-07,16:23:07.663000,-0.02267,-0.00020717,0.006568600000000001,0.0088959,0.007344800000000001
2021-04-07,16:23:07.665000,-0.022955,-0.00033935,0.0066098,0.008942799999999999,0.0073348
2021-04-07,16:23:07.667000,-0.023047,-0.00032998,0.0066878,0.0089403,0.007348100000000001
2021-04-07,16:23:07.669000,-0.022951,-0.00020899999999999998,0.0067933,0.0089476,0.0073638
2021-04-07,16:23:07.671000,-0.022822,-6.142699999999999e-05,0.0068648,0.0089734,0.0074104
2021-04-07,16:23:07.673000,-0.022775,0.00012241,0.0068932,0.008996899999999999,0.0075181
2021-04-07,16:23:07.675000,-0.022848,0.00030658,0.006873399999999999,0.009050399999999998,0.007662100000000001
2021-04-07,16:23:07.677000,-0.022975,0.00055568,0.006843300000000001,0.0090931,0.0078805
2021-04-07,16:23:07.679000,-0.023099,0.00094077,0.0068619,0.0091246,0.0081538
2021-04-07,16:23:07.681000,-0.023274,0.0012004000000000001,0.0068790000000000006,0.009025499999999999,0.0083846
2021-04-07,16:23:07.683000,-0.0234,0.0013783,0.006887899999999999,0.0087425,0.008578200000000001
2021-04-07,16:23:07.685000,-0.023452,0.0016185,0.0069278000000000005,0.0085009,0.0087085
2021-04-07,16:23:07.687000,-0.023492,0.0017004000000000001,0.006974500000000001,0.0082637,0.0087405
2021-04-07,16:23:07.689000,-0.0234,0.0017190999999999999,0.0070434,0.0079622,0.008751
2021-04-07,16:23:07.691000,-0.02325,0.0017921,0.007167100000000001,0.007758,0.0087704
2021-04-07,16:23:07.693000,-0.023203,0.0017823000000000001,0.0073337,0.007646600000000001,0.0087804
2021-04-07,16:23:07.695000,-0.023293,0.0016696999999999999,0.007504600000000001,0.0075808,0.008802200000000001
2021-04-07,16:23:07.697000,-0.023586000000000003,0.0015039,0.0076285,0.0075665,0.0088641
2021-04-07,16:23:07.699000,-0.023994,0.0013563,0.0077158,0.0076188,0.008957099999999999
2021-04-07,16:23:07.701000,-0.024437999999999998,0.001103,0.0078241,0.0077572000000000006,0.0090465
2021-04-07,16:23:07.703000,-0.024955,0.00072192,0.007906100000000001,0.0079224,0.0091155
2021-04-07,16:23:07.705000,-0.025456,0.00042251,0.0078441,0.0081171,0.009171200000000001
2021-04-07,16:23:07.707000,-0.025823000000000002,0.00020307,0.007737899999999999,0.008323899999999999,0.009204299999999999
2021-04-07,16:23:07.709000,-0.026016,8.5096e-05,0.0077968,0.008446500000000001,0.0091598
2021-04-07,16:23:07.711000,-0.026074,9.122899999999999e-05,0.0079689,0.0085104,0.0090744
2021-04-07,16:23:07.713000,-0.026099,0.00013271,0.0081539,0.008585700000000002,0.009050200000000001
2021-04-07,16:23:07.715000,-0.026220999999999998,0.00019566,0.0083535,0.0086848,0.0090696
2021-04-07,16:23:07.717000,-0.026487,0.0002307,0.0085162,0.008801,0.0091134
2021-04-07,16:23:07.719000,-0.02683,0.00022418,0.008658200000000001,0.008927500000000001,0.0091937
2021-04-07,16:23:07.721000,-0.027179000000000002,0.00023675,0.0088155,0.009059200000000002,0.009287899999999998
2021-04-07,16:23:07.723000,-0.027429000000000002,0.0002782,0.0089465,0.0091637,0.0093806
2021-04-07,16:23:07.725000,-0.027594,0.00029644,0.0090505,0.0092206,0.0094322
2021-04-07,16:23:07.727000,-0.027723,0.00028782,0.009152799999999999,0.0092523,0.0094434
2021-04-07,16:23:07.729000,-0.027717000000000002,0.0003321,0.0092521,0.0092663,0.0094636
2021-04-07,16:23:07.731000,-0.027623,0.00047916,0.0093764,0.0093034,0.0095319
2021-04-07,16:23:07.733000,-0.027624,0.00063512,0.0095263,0.0093814,0.0096337
2021-04-07,16:23:07.735000,-0.02785,0.00061378,0.009629,0.0094314,0.0096992
2021-04-07,16:23:07.737000,-0.028294999999999997,0.00049202,0.009715399999999999,0.0094919,0.0097728
2021-04-07,16:23:07.739000,-0.028783999999999997,0.00043553,0.009836,0.009596200000000001,0.0098917
2021-04-07,16:23:07.741000,-0.029127999999999998,0.00045939999999999995,0.009978299999999999,0.0097199,0.010029999999999999
2021-04-07,16:23:07.743000,-0.029354,0.00053002,0.010131999999999999,0.0098584,0.010175
