Date,Time,ecg1,ecg2,ecg3,ecg4,ecg5
2021-04-07,16:21:15.513000,5.0828e-06,4.7542e-05,-4.0601e-05,0.00035939,-0.00010725
2021-04-07,16:21:15.515000,0.00012216,0.00025775,-9.0542e-05,0.00041104,-2.8746e-05
2021-04-07,16:21:15.517000,0.00021374,0.00046541,-0.0001976,0.00029645,8.6537e-05
2021-04-07,16:21:15.519000,0.00026201,0.00066307,-0.00023078,0.00023315,0.0001916
2021-04-07,16:21:15.521000,0.00035304,0.00088913,-0.00026223,8.0096e-06,0.00034203
2021-04-07,16:21:15.523000,0.00045973,0.0010986,-0.00024515,-0.00020506,0.00045691
2021-04-07,16:21:15.525000,0.00054721,0.0012445,-0.00022609,-0.00038787,0.00052883
2021-04-07,16:21:15.527000,0.00070155,0.0013659,-0.00024264,-0.00063195,0.00057781
2021-04-07,16:21:15.529000,0.00090782,0.0014414000000000002,-0.00023018,-0.00083357,0.00057902
2021-04-07,16:21:15.531000,0.0011181,0.001437,-0.00020741,-0.00097493,0.00053948
2021-04-07,16:21:15.533000,0.0012459,0.0013194,-0.00018964,-0.001109,0.00047485
2021-04-07,16:21:15.535000,0.0012735,0.0012115000000000001,-0.00019421,-0.0012407,0.00043158
2021-04-07,16:21:15.537000,0.0012692,0.0010865,-0.00019738,-0.0012624000000000001,0.000412
2021-04-07,16:21:15.539000,0.0010929,0.00074723,-0.00016077,-0.0011795,0.00038789
2021-04-07,16:21:15.541000,0.00071883,0.00041001,-0.00022228,-0.0010054,0.00039277
2021-04-07,16:21:15.543000,0.00029049999999999996,0.00018326,-0.00039456,-0.00073304,0.00043438
2021-04-07,16:21:15.545000,-9.8543e-05,-3.2184e-05,-0.00046129,-0.00052891,0.00045163
2021-04-07,16:21:15.547000,-0.00027187,-0.00013825,-0.00041576,-0.00041453,0.00039436
2021-04-07,16:21:15.549000,-0.0002333,-0.00016644,-0.00036260000000000003,-0.00033475,0.00028661
2021-04-07,16:21:15.551000,-0.00012136,-0.00014199,-0.00028938,-0.00030389999999999996,0.00018669
2021-04-07,16:21:15.553000,1.8919e-05,-6.8213e-05,-0.0002236,-0.00027133,0.00010902
2021-04-07,16:21:15.555000,9.7691e-05,-5.9248e-05,-0.00018140000000000002,-0.00023196,4.0649e-05
2021-04-07,16:21:15.557000,9.9331e-05,-6.7565e-05,-0.00012481,-0.00018936,-6.2789999999999995e-06
2021-04-07,16:21:15.559000,7.8672e-05,-3.3631e-05,-6.4332e-05,-0.00013995,-7.5676e-06
2021-04-07,16:21:15.561000,5.0945e-05,9.006e-06,-2.0695e-06,-9.4755e-05,1.3157000000000001e-05
2021-04-07,16:21:15.563000,2.3535e-05,4.9411000000000005e-05,6.4512e-05,-3.5607e-05,2.3985e-05
2021-04-07,16:21:15.565000,-5.746900000000001e-06,6.2573e-05,0.00010229999999999999,9.3043e-06,3.0211999999999998e-05
2021-04-07,16:21:15.567000,-8.466399999999999e-06,5.5173e-05,0.00010740000000000001,1.6026e-05,1.9880999999999998e-05
2021-04-07,16:21:15.569000,3.0657e-05,4.4009e-05,8.549299999999999e-05,-1.7695e-07,-9.3814e-06
2021-04-07,16:21:15.571000,9.970799999999999e-05,2.3856e-05,4.4388e-05,-2.5023e-05,-4.1144e-05
2021-04-07,16:21:15.573000,0.00017044,1.0223e-05,1.9032e-05,-4.1116000000000004e-05,-7.178e-05
2021-04-07,16:21:15.575000,0.00019622,1.9038999999999999e-06,1.1444000000000001e-05,-4.8046e-05,-8.824200000000001e-05
2021-04-07,16:21:15.577000,0.00017701,-7.6755e-06,1.2693e-05,-4.0283e-05,-8.8517e-05
2021-04-07,16:21:15.579000,0.00011563,-1.2312e-05,3.6760999999999996e-05,-1.1693e-05,-7.3955e-05
2021-04-07,16:21:15.581000,2.4926999999999997e-05,-1.5327e-05,6.8398e-05,1.9287e-05,-4.6771e-05
2021-04-07,16:21:15.583000,-4.1828e-05,-1.5802e-05,9.0361e-05,4.5365e-05,-2.3225999999999998e-05
2021-04-07,16:21:15.585000,-7.6905e-05,-1.6039e-05,0.00010724,6.5455e-05,-9.8963e-06
2021-04-07,16:21:15.587000,-8.1356e-05,-1.8822e-05,0.00010458,6.288600000000001e-05,-1.9622999999999998e-05
2021-04-07,16:21:15.589000,-2.7864e-05,-1.9902e-05,8.192e-05,4.2693999999999995e-05,-4.7504e-05
2021-04-07,16:21:15.591000,5.9116e-05,-2.1795e-05,5.9279e-05,2.3833e-05,-7.1282e-05
2021-04-07,16:21:15.593000,0.00013116,-2.3479e-05,3.5133000000000004e-05,2.0701e-06,-9.6184e-05
2021-04-07,16:21:15.595000,0.00017492,-2.12e-05,2.2170999999999998e-05,-1.2975999999999999e-05,-0.00011199
2021-04-07,16:21:15.597000,0.00016572,-1.8526e-05,3.5870999999999996e-05,-5.6031e-06,-0.00010437
2021-04-07,16:21:15.599000,9.877100000000001e-05,-1.8729e-05,5.8419e-05,1.5024e-05,-8.804200000000001e-05
2021-04-07,16:21:15.601000,2.6955e-05,-1.6400999999999998e-05,8.2921e-05,4.5789e-05,-6.364e-05
2021-04-07,16:21:15.603000,-3.1602e-05,-1.015e-05,0.00010725,7.5424e-05,-3.6164e-05
2021-04-07,16:21:15.605000,-7.907300000000001e-05,-1.0607999999999999e-05,0.0001214,9.069e-05,-2.1238000000000002e-05
2021-04-07,16:21:15.607000,-7.888800000000001e-05,-1.1734000000000001e-05,0.00011989,8.9798e-05,-2.1263000000000003e-05
2021-04-07,16:21:15.609000,-1.6567e-05,-5.9575e-06,9.2341e-05,6.4439e-05,-4.6055e-05
2021-04-07,16:21:15.611000,7.3258e-05,-4.0156e-06,5.8923999999999994e-05,3.476e-05,-8.0715e-05
2021-04-07,16:21:15.613000,0.00015489,-1.6353e-06,4.4597e-05,1.3699e-05,-9.730200000000001e-05
2021-04-07,16:21:15.615000,0.00020436,2.6511000000000003e-06,3.8880999999999996e-05,-2.3792e-06,-0.00010505
2021-04-07,16:21:15.617000,0.00018707,1.7236000000000001e-06,4.2328999999999994e-05,6.9059e-06,-0.00010307
2021-04-07,16:21:15.619000,0.00011971,4.4695e-06,6.1214e-05,2.8891e-05,-8.031399999999999e-05
2021-04-07,16:21:15.621000,5.1963000000000004e-05,7.4159000000000004e-06,8.929200000000001e-05,4.7541000000000004e-05,-5.4485e-05
2021-04-07,16:21:15.623000,-2.2028000000000003e-05,3.0494e-06,0.00011522,7.1473e-05,-3.6519e-05
2021-04-07,16:21:15.625000,-6.9138e-05,7.982200000000001e-07,0.00012652,8.7676e-05,-2.3596e-05
2021-04-07,16:21:15.627000,-4.9231000000000003e-05,3.5512e-06,0.00012348,8.599600000000001e-05,-2.6813000000000002e-05
2021-04-07,16:21:15.629000,-6.675799999999999e-07,3.4829e-06,0.00010586,6.3909e-05,-5.0178999999999995e-05
2021-04-07,16:21:15.631000,7.852300000000001e-05,-1.9307e-06,7.6515e-05,2.9841999999999997e-05,-8.037e-05
2021-04-07,16:21:15.633000,0.00016903,-4.3482999999999995e-06,5.3545e-05,3.3035000000000002e-06,-0.00010809
2021-04-07,16:21:15.635000,0.00019961,-4.9783e-06,4.5666999999999995e-05,-9.792899999999999e-06,-0.000124
2021-04-07,16:21:15.637000,0.00018622,-6.348099999999999e-06,4.8156000000000004e-05,-6.390499999999999e-06,-0.00012007
2021-04-07,16:21:15.639000,0.00013929,1.8180999999999998e-07,6.8524e-05,1.3541e-05,-9.6954e-05
2021-04-07,16:21:15.641000,5.2275e-05,4.1927e-06,0.00010387,4.2033e-05,-6.5206e-05
2021-04-07,16:21:15.643000,-1.2584e-05,7.4158e-07,0.00012847,6.7197e-05,-4.2388e-05
2021-04-07,16:21:15.645000,-4.368e-05,2.0515e-06,0.00014176,8.0122e-05,-3.2269e-05
2021-04-07,16:21:15.647000,-4.8917e-05,3.9548e-06,0.00014079,7.3557e-05,-3.5416e-05
2021-04-07,16:21:15.649000,1.1033e-05,4.3078e-06,0.00011749,4.8172e-05,-5.7112e-05
2021-04-07,16:21:15.651000,0.00010393,4.1438e-06,9.7228e-05,2.276e-05,-8.5251e-05
2021-04-07,16:21:15.653000,0.00017378,3.2011e-06,7.9307e-05,2.1638999999999997e-06,-0.0001079
2021-04-07,16:21:15.655000,0.0002138,1.0572e-05,6.3469e-05,-1.2607e-05,-0.00012073
2021-04-07,16:21:15.657000,0.00019592,1.8394e-05,7.7982e-05,-8.159e-06,-0.00011167
2021-04-07,16:21:15.659000,0.00012784,1.4437000000000001e-05,0.00010821,1.1634e-05,-8.972799999999999e-05
2021-04-07,16:21:15.661000,6.7507e-05,1.1103e-05,0.00013269,3.8166999999999996e-05,-7.126100000000001e-05
2021-04-07,16:21:15.663000,9.975e-06,1.4870999999999999e-05,0.00015334,6.3858e-05,-4.8433e-05
2021-04-07,16:21:15.665000,-4.4766000000000005e-05,1.4494e-05,0.00016704,7.4971e-05,-3.2874000000000004e-05
2021-04-07,16:21:15.667000,-3.5731e-05,1.1478e-05,0.00016684,6.6162e-05,-4.2561e-05
2021-04-07,16:21:15.669000,3.9476999999999995e-05,1.5368e-05,0.00014543,4.1816e-05,-6.4508e-05
2021-04-07,16:21:15.671000,0.00012516,1.5944000000000002e-05,0.00011756,1.1775e-05,-9.1954e-05
2021-04-07,16:21:15.673000,0.00020034,9.782200000000001e-06,9.581700000000001e-05,-1.3514000000000001e-05,-0.00011999999999999999
2021-04-07,16:21:15.675000,0.00024797,1.3573e-05,8.2549e-05,-2.465e-05,-0.00012594
2021-04-07,16:21:15.677000,0.00022841,1.833e-05,9.569e-05,-1.6626e-05,-0.00011345
2021-04-07,16:21:15.679000,0.00016384,1.7198e-05,0.00011856,4.5326e-06,-0.00010208
2021-04-07,16:21:15.681000,9.9223e-05,2.3037e-05,0.00013691,2.9436e-05,-7.6331e-05
2021-04-07,16:21:15.683000,3.07e-05,3.049e-05,0.00016811,5.198e-05,-4.4616e-05
2021-04-07,16:21:15.685000,-1.1893e-06,3.8206999999999995e-05,0.00018543,6.1901e-05,-4.0191e-05
2021-04-07,16:21:15.687000,2.8998000000000003e-05,3.8176e-05,0.00017994,5.3223e-05,-4.6313e-05
2021-04-07,16:21:15.689000,7.802199999999999e-05,3.0948e-05,0.00016673,3.1539000000000004e-05,-6.0817e-05
2021-04-07,16:21:15.691000,0.00015458,3.5054e-05,0.00013473,1.6691e-06,-9.3468e-05
2021-04-07,16:21:15.693000,0.00024141,3.8445e-05,0.00011529,-2.2961999999999998e-05,-0.00011492
2021-04-07,16:21:15.695000,0.00027791,4.2466e-05,0.00011695,-3.2899e-05,-0.0001236
2021-04-07,16:21:15.697000,0.00026757,4.6265e-05,0.00011625,-3.2917e-05,-0.00012247
2021-04-07,16:21:15.699000,0.00021625,4.1201e-05,0.00013680000000000002,-1.505e-05,-9.7602e-05
2021-04-07,16:21:15.701000,0.00013414,4.5531e-05,0.00016741,1.4838e-05,-6.985e-05
2021-04-07,16:21:15.703000,6.5275e-05,4.6843e-05,0.00018507,3.6611e-05,-5.4223e-05
2021-04-07,16:21:15.705000,3.3427e-05,4.1442e-05,0.00019971,4.6115e-05,-4.2562e-05
2021-04-07,16:21:15.707000,4.7343000000000004e-05,4.1723999999999996e-05,0.0001978,3.5409e-05,-4.7121000000000005e-05
2021-04-07,16:21:15.709000,0.00011674,4.3716000000000006e-05,0.00017677,8.6446e-06,-7.3082e-05
2021-04-07,16:21:15.711000,0.00021581,5.153e-05,0.00015261,-1.7018e-05,-9.575399999999999e-05
2021-04-07,16:21:15.713000,0.00029275,5.1906e-05,0.0001315,-4.0116e-05,-0.00011461
2021-04-07,16:21:15.715000,0.00033084,4.9031000000000005e-05,0.00012131,-5.7203999999999996e-05,-0.00013671
2021-04-07,16:21:15.717000,0.00031564,5.1926000000000004e-05,0.00012915,-5.441e-05,-0.00013238
2021-04-07,16:21:15.719000,0.00024899,4.8698999999999996e-05,0.00015613,-3.042e-05,-0.00010306
2021-04-07,16:21:15.721000,0.00018146,5.2282e-05,0.00018646,-4.948e-06,-7.9428e-05
2021-04-07,16:21:15.723000,0.00011750000000000001,5.8475e-05,0.00020833,1.3462000000000001e-05,-5.802e-05
2021-04-07,16:21:15.725000,6.9655e-05,5.5162e-05,0.00022589,2.4179e-05,-4.607e-05
2021-04-07,16:21:15.727000,9.5785e-05,5.3391000000000004e-05,0.0002218,1.4602999999999999e-05,-5.7606000000000004e-05
2021-04-07,16:21:15.729000,0.000174,5.4463000000000004e-05,0.00019590000000000002,-1.0872999999999999e-05,-7.5794e-05
2021-04-07,16:21:15.731000,0.00025394,5.5263e-05,0.00017248,-4.2381000000000006e-05,-9.922799999999999e-05
2021-04-07,16:21:15.733000,0.00032884,5.5796000000000006e-05,0.00014539999999999998,-7.0167e-05,-0.00012693
2021-04-07,16:21:15.735000,0.00037173,5.8965e-05,0.00013426,-7.8253e-05,-0.00013636
2021-04-07,16:21:15.737000,0.00034958,5.8831999999999995e-05,0.00015414,-7.2515e-05,-0.00012707
2021-04-07,16:21:15.739000,0.00028718,5.3276e-05,0.00016942,-5.6101000000000004e-05,-0.00010700000000000001
2021-04-07,16:21:15.741000,0.00022124,5.5564e-05,0.00019225,-2.7225e-05,-7.861600000000001e-05
2021-04-07,16:21:15.743000,0.00015326,5.9819e-05,0.00022542,-4.4436e-06,-5.5972e-05
2021-04-07,16:21:15.745000,0.00011992,5.805e-05,0.00023111,3.9744999999999995e-07,-4.991e-05
2021-04-07,16:21:15.747000,0.00015245,5.508e-05,0.00022364,-1.091e-05,-6.046600000000001e-05
2021-04-07,16:21:15.749000,0.00020761,5.0438e-05,0.00020891,-3.4807e-05,-8.2396e-05
2021-04-07,16:21:15.751000,0.00027919999999999996,4.767e-05,0.00018057,-6.3716e-05,-0.0001056
2021-04-07,16:21:15.753000,0.00037009,4.8521000000000005e-05,0.00016113,-8.7717e-05,-0.00012433
2021-04-07,16:21:15.755000,0.00041059,4.7422e-05,0.0001525,-9.9488e-05,-0.00013661
2021-04-07,16:21:15.757000,0.00037865,4.7078999999999994e-05,0.00015876,-9.4045e-05,-0.00012959
2021-04-07,16:21:15.759000,0.00031933,4.9883e-05,0.00018525,-7.3295e-05,-0.00010085
2021-04-07,16:21:15.761000,0.00024959,5.0669e-05,0.00021235,-5.171100000000001e-05,-7.359e-05
2021-04-07,16:21:15.763000,0.00017769,4.9893000000000005e-05,0.00023479,-3.5744e-05,-5.3726e-05
2021-04-07,16:21:15.765000,0.00014289,4.7397e-05,0.00025077,-2.3648e-05,-3.7451e-05
2021-04-07,16:21:15.767000,0.00017428,4.6878999999999996e-05,0.00024001,-3.3818e-05,-4.6051000000000003e-05
2021-04-07,16:21:15.769000,0.00025181,4.8751e-05,0.00020750000000000003,-6.7115e-05,-7.633399999999999e-05
2021-04-07,16:21:15.771000,0.00033464,4.2117e-05,0.00018536,-9.227200000000001e-05,-9.9901e-05
2021-04-07,16:21:15.773000,0.00040086,3.7192e-05,0.00017047,-0.00011181,-0.00011868
2021-04-07,16:21:15.775000,0.00042993,3.8413e-05,0.00015525,-0.00012728,-0.00012861
2021-04-07,16:21:15.777000,0.00039779,3.3497e-05,0.00016457,-0.00011651,-0.00011366
2021-04-07,16:21:15.779000,0.00032661,2.6246999999999998e-05,0.00019037,-9.6381e-05,-8.8585e-05
2021-04-07,16:21:15.781000,0.00026179,2.2659e-05,0.00021132,-7.9072e-05,-6.5664e-05
2021-04-07,16:21:15.783000,0.00020572,2.4889000000000002e-05,0.00023122,-5.4902e-05,-3.9488e-05
2021-04-07,16:21:15.785000,0.00016241,2.3258000000000003e-05,0.00024322,-4.0598e-05,-2.3425e-05
2021-04-07,16:21:15.787000,0.00018487,1.8713e-05,0.0002333,-5.1971e-05,-3.4942e-05
2021-04-07,16:21:15.789000,0.00026922,2.1385e-05,0.00020514,-7.9435e-05,-5.6533e-05
2021-04-07,16:21:15.791000,0.00034681,1.6161e-05,0.00017748,-0.00010946,-7.5147e-05
2021-04-07,16:21:15.793000,0.00041128,9.41e-06,0.00015492,-0.00013468,-9.6816e-05
2021-04-07,16:21:15.795000,0.00044831,8.8929e-06,0.00014313,-0.00014244,-0.00010247
2021-04-07,16:21:15.797000,0.00041319999999999996,2.2574e-06,0.00015390000000000003,-0.00012822,-8.668e-05
2021-04-07,16:21:15.799000,0.00034268,1.6978e-06,0.00017014,-0.0001051,-6.3137e-05
2021-04-07,16:21:15.801000,0.00027135,4.4281e-06,0.00018721,-8.1266e-05,-3.3295e-05
2021-04-07,16:21:15.803000,0.00019590000000000002,-1.5607999999999998e-07,0.00021172,-5.8039e-05,-9.6759e-06
2021-04-07,16:21:15.805000,0.000161,-2.4194e-06,0.00022316,-4.6343e-05,3.1747000000000003e-06
2021-04-07,16:21:15.807000,0.00019053,-3.897e-06,0.00020922,-5.5629e-05,2.0562e-06
2021-04-07,16:21:15.809000,0.0002477,-7.1375e-06,0.00017727,-7.7922e-05,-2.2333e-05
2021-04-07,16:21:15.811000,0.00031949,-1.1952e-05,0.00013987,-0.00010635,-5.0561000000000006e-05
2021-04-07,16:21:15.813000,0.00038824,-1.5413e-05,0.00011055,-0.00012746,-6.5108e-05
2021-04-07,16:21:15.815000,0.00040421,-1.5765999999999998e-05,9.8446e-05,-0.00012869,-6.8713e-05
2021-04-07,16:21:15.817000,0.00035818,-2.1925e-05,0.00010378,-0.00011957,-6.0712e-05
2021-04-07,16:21:15.819000,0.0002771,-2.6141999999999998e-05,0.00012031,-9.6552e-05,-3.6214e-05
2021-04-07,16:21:15.821000,0.00019079,-2.1454e-05,0.00013975,-6.3293e-05,-4.0874e-06
2021-04-07,16:21:15.823000,0.00011789,-1.9673e-05,0.00015402,-3.8821999999999995e-05,1.8282e-05
2021-04-07,16:21:15.825000,7.496300000000001e-05,-2.1819000000000002e-05,0.00015828,-2.4540999999999998e-05,2.7091e-05
2021-04-07,16:21:15.827000,8.6455e-05,-2.3323e-05,0.00013777,-2.8409000000000002e-05,1.6481e-05
2021-04-07,16:21:15.829000,0.00014479,-2.4545e-05,9.892200000000001e-05,-4.8499e-05,-1.0399000000000002e-05
2021-04-07,16:21:15.831000,0.00021542,-2.5558e-05,7.182899999999999e-05,-7.031600000000001e-05,-3.6237e-05
2021-04-07,16:21:15.833000,0.00026651,-2.6268000000000003e-05,4.8684e-05,-8.776299999999999e-05,-5.7405e-05
2021-04-07,16:21:15.835000,0.00028184,-2.2778e-05,2.8105e-05,-8.7936e-05,-6.1573e-05
2021-04-07,16:21:15.837000,0.00024329,-1.7946e-05,3.3895e-05,-7.3184e-05,-4.2651e-05
2021-04-07,16:21:15.839000,0.00015565,-2.1525e-05,5.4168999999999996e-05,-4.9059e-05,-2.1909e-05
2021-04-07,16:21:15.841000,7.4946e-05,-2.4386e-05,7.083899999999999e-05,-1.4965e-05,-1.9272999999999997e-06
2021-04-07,16:21:15.843000,7.1938e-06,-1.6742e-05,8.4173e-05,1.2614000000000002e-05,2.4859e-05
2021-04-07,16:21:15.845000,-4.2712e-05,-1.2652999999999999e-05,8.8472e-05,2.2953000000000002e-05,3.8374e-05
2021-04-07,16:21:15.847000,-1.8108e-05,-1.4896e-05,7.3625e-05,1.1085e-05,2.3091e-05
2021-04-07,16:21:15.849000,5.39e-05,-1.5385e-05,3.9483e-05,-1.2934e-05,-4.3246e-06
2021-04-07,16:21:15.851000,0.00012049,-1.7872e-05,2.5981e-06,-3.1595e-05,-2.8876999999999998e-05
2021-04-07,16:21:15.853000,0.00018030000000000002,-1.9204e-05,-1.9864e-05,-5.2378999999999994e-05,-5.0093e-05
2021-04-07,16:21:15.855000,0.00020548,-1.4589e-05,-2.9359e-05,-6.3785e-05,-6.1919e-05
2021-04-07,16:21:15.857000,0.00016687,-1.0300000000000001e-05,-2.7547e-05,-4.6677e-05,-5.4941e-05
2021-04-07,16:21:15.859000,9.198e-05,-1.0002e-05,-6.2812e-06,-1.4814e-05,-2.7465999999999998e-05
2021-04-07,16:21:15.861000,1.014e-05,-1.0609000000000001e-05,1.8386e-05,1.3967e-05,4.8183e-06
2021-04-07,16:21:15.863000,-6.5573e-05,-9.8375e-06,2.771e-05,2.8595e-05,2.1402e-05
2021-04-07,16:21:15.865000,-9.059700000000001e-05,-5.9202e-06,3.1607e-05,3.4299e-05,2.3925e-05
2021-04-07,16:21:15.867000,-5.3575e-05,-1.9415999999999998e-06,2.686e-05,3.2868000000000004e-05,1.8171e-05
2021-04-07,16:21:15.869000,1.3927e-05,-2.3562999999999998e-06,1.2084e-06,9.7136e-06,-4.9426e-06
2021-04-07,16:21:15.871000,9.8959e-05,-6.5095e-07,-3.3524e-05,-2.3075e-05,-3.783e-05
2021-04-07,16:21:15.873000,0.00016393,1.9334e-06,-5.4833e-05,-4.2496999999999996e-05,-5.8321000000000006e-05
2021-04-07,16:21:15.875000,0.00017692,2.605e-06,-5.7448e-05,-4.5264e-05,-6.5356e-05
2021-04-07,16:21:15.877000,0.00014808,7.0608e-06,-5.071e-05,-3.6244e-05,-5.8396e-05
2021-04-07,16:21:15.879000,7.8813e-05,7.9138e-06,-2.8601e-05,-1.0419000000000001e-05,-3.3285e-05
2021-04-07,16:21:15.881000,-1.1277e-05,5.5284e-06,-3.7801000000000003e-07,2.564e-05,-4.8744e-06
2021-04-07,16:21:15.883000,-7.296100000000001e-05,6.8947e-06,1.4043e-05,4.1925e-05,1.7427e-05
2021-04-07,16:21:15.885000,-9.1745e-05,5.849299999999999e-06,2.3466e-05,4.5496000000000006e-05,2.7871999999999997e-05
2021-04-07,16:21:15.887000,-6.9583e-05,7.9086e-06,1.5771e-05,3.8808000000000005e-05,1.7037e-05
2021-04-07,16:21:15.889000,3.5320999999999996e-06,1.323e-05,-1.3986e-05,6.1159e-06,-8.9661e-06
2021-04-07,16:21:15.891000,9.235299999999999e-05,9.9167e-06,-3.677e-05,-1.6708e-05,-3.6162e-05
2021-04-07,16:21:15.893000,0.00015418,1.0211000000000001e-05,-5.5081e-05,-2.9608000000000002e-05,-5.596e-05
2021-04-07,16:21:15.895000,0.0001809,1.2468e-05,-6.745e-05,-4.6967e-05,-6.5691e-05
2021-04-07,16:21:15.897000,0.00014337,9.3726e-06,-5.5331e-05,-3.4147e-05,-5.5327e-05
2021-04-07,16:21:15.899000,6.0738e-05,1.6428e-05,-3.201e-05,-7.059500000000001e-06,-2.8803000000000002e-05
2021-04-07,16:21:15.901000,-1.4626e-06,1.2818e-05,-1.0043999999999999e-05,1.4047000000000001e-05,-4.687200000000001e-06
2021-04-07,16:21:15.903000,-5.2641000000000006e-05,3.7795e-06,1.3974e-05,4.05e-05,1.9413e-05
2021-04-07,16:21:15.905000,-8.6537e-05,2.2206e-05,2.6489e-05,4.9847e-05,3.0572e-05
2021-04-07,16:21:15.907000,-5.0136e-05,3.0566e-05,1.1847999999999999e-05,3.2754e-05,1.3489e-05
2021-04-07,16:21:15.909000,3.4776999999999996e-05,1.9763e-05,-1.7289e-05,7.4474e-06,-1.1524e-05
2021-04-07,16:21:15.911000,0.00011505,2.3695e-05,-4.3166999999999995e-05,-2.0325999999999998e-05,-3.576e-05
2021-04-07,16:21:15.913000,0.0001763,3.0432e-05,-6.0255e-05,-4.1014e-05,-5.889e-05
2021-04-07,16:21:15.915000,0.00020024,2.9824e-05,-6.1517e-05,-3.8189e-05,-6.3637e-05
2021-04-07,16:21:15.917000,0.00015782,2.8916e-05,-4.8129e-05,-2.2502e-05,-4.7361e-05
2021-04-07,16:21:15.919000,7.8898e-05,2.5796e-05,-2.7073000000000003e-05,-3.2257e-06,-2.1599e-05
2021-04-07,16:21:15.921000,9.4244e-06,2.2915e-05,7.889e-07,2.5381e-05,7.206799999999999e-06
2021-04-07,16:21:15.923000,-5.1076000000000004e-05,2.5916e-05,2.1454e-05,4.2776000000000005e-05,2.5266999999999997e-05
2021-04-07,16:21:15.925000,-7.8134e-05,2.8385e-05,2.2108000000000002e-05,4.4742e-05,2.7476999999999998e-05
2021-04-07,16:21:15.927000,-4.1802e-05,2.512e-05,1.144e-05,3.6294e-05,1.9132999999999998e-05
2021-04-07,16:21:15.929000,4.2993999999999995e-05,2.3601e-05,-1.3679e-05,5.779e-06,-7.1464e-06
2021-04-07,16:21:15.931000,0.00013011,2.465e-05,-4.7731999999999996e-05,-2.3502e-05,-4.0335e-05
2021-04-07,16:21:15.933000,0.00018076,2.6606999999999998e-05,-6.231699999999999e-05,-3.8336e-05,-5.7424e-05
2021-04-07,16:21:15.935000,0.00019138,2.6911e-05,-6.0983e-05,-4.5875e-05,-5.9638e-05
2021-04-07,16:21:15.937000,0.00014826,2.2788000000000003e-05,-5.127e-05,-3.6244e-05,-4.8246000000000005e-05
2021-04-07,16:21:15.939000,7.041e-05,2.224e-05,-2.6504000000000002e-05,-1.4349000000000001e-05,-2.1926e-05
2021-04-07,16:21:15.941000,-7.905899999999999e-07,2.4171999999999998e-05,-1.385e-06,1.1067000000000001e-05,2.9876999999999998e-06
2021-04-07,16:21:15.943000,-6.1217e-05,2.4524e-05,1.8782e-05,3.3303e-05,2.0827e-05
2021-04-07,16:21:15.945000,-8.1355e-05,2.7874e-05,3.3453e-05,4.3525e-05,3.2451e-05
2021-04-07,16:21:15.947000,-4.0716999999999997e-05,3.3e-05,2.0536999999999997e-05,3.4653e-05,1.8525e-05
2021-04-07,16:21:15.949000,3.7786e-05,3.1039e-05,-1.4889000000000001e-05,3.7804000000000003e-06,-1.1419e-05
2021-04-07,16:21:15.951000,0.00012037,2.2321999999999997e-05,-3.9784000000000004e-05,-2.4954000000000002e-05,-3.6716e-05
2021-04-07,16:21:15.953000,0.00017641,2.1751e-05,-5.4068999999999993e-05,-4.2493e-05,-6.323e-05
2021-04-07,16:21:15.955000,0.00019262,2.5855999999999998e-05,-6.292199999999999e-05,-5.2961e-05,-6.9361e-05
2021-04-07,16:21:15.957000,0.00014707,2.4821999999999997e-05,-4.7857e-05,-3.6374e-05,-4.8788e-05
2021-04-07,16:21:15.959000,6.2896e-05,2.4396999999999997e-05,-1.926e-05,-5.7382e-06,-2.5486e-05
2021-04-07,16:21:15.961000,-6.4801e-07,2.6628000000000003e-05,4.265199999999999e-06,1.6958e-05,2.1071e-06
2021-04-07,16:21:15.963000,-5.5513e-05,2.8581e-05,2.5169000000000002e-05,3.979e-05,2.4151e-05
2021-04-07,16:21:15.965000,-9.1715e-05,2.5429e-05,2.9323e-05,4.7836999999999996e-05,2.6484000000000003e-05
2021-04-07,16:21:15.967000,-4.736600000000001e-05,2.1955999999999998e-05,1.0298e-05,2.9149e-05,1.2035e-05
2021-04-07,16:21:15.969000,3.9216e-05,2.0875e-05,-1.477e-05,1.0513e-06,-1.4624000000000001e-05
2021-04-07,16:21:15.971000,0.00010687,1.8316e-05,-3.9795e-05,-2.514e-05,-4.2035e-05
2021-04-07,16:21:15.973000,0.00016855,1.6514e-05,-5.8786e-05,-4.2246e-05,-6.0116000000000005e-05
2021-04-07,16:21:15.975000,0.00018554,1.3600999999999999e-05,-6.3363e-05,-4.3975e-05,-6.422100000000001e-05
2021-04-07,16:21:15.977000,0.00012716,1.2954000000000002e-05,-5.3549e-05,-3.214e-05,-5.4705e-05
2021-04-07,16:21:15.979000,5.7806e-05,1.2292e-05,-2.6585e-05,-1.2975e-05,-2.8825999999999998e-05
2021-04-07,16:21:15.981000,-9.9098e-06,1.0685e-05,5.2283e-06,1.2517e-05,4.1670999999999995e-06
2021-04-07,16:21:15.983000,-7.779899999999999e-05,1.5334000000000003e-05,2.2039e-05,3.7043000000000004e-05,2.0875999999999998e-05
2021-04-07,16:21:15.985000,-9.05e-05,1.5903e-05,2.2947e-05,3.9793000000000003e-05,2.1286e-05
2021-04-07,16:21:15.987000,-4.6443e-05,1.201e-05,9.1427e-06,2.606e-05,8.849700000000001e-06
2021-04-07,16:21:15.989000,3.1066e-05,1.1937000000000001e-05,-1.5469e-05,5.7439999999999996e-06,-1.6285e-05
2021-04-07,16:21:15.991000,0.00011713,1.1885e-05,-4.1961999999999996e-05,-2.7053000000000003e-05,-4.1291e-05
2021-04-07,16:21:15.993000,0.00016639,1.1574000000000001e-05,-5.8925e-05,-4.9445e-05,-6.3308e-05
2021-04-07,16:21:15.995000,0.00017327,1.3124000000000002e-05,-5.6026e-05,-4.7565e-05,-6.8494e-05
2021-04-07,16:21:15.997000,0.00013441,1.4695e-05,-4.4558e-05,-3.2769000000000004e-05,-4.3732e-05
2021-04-07,16:21:15.999000,5.4777e-05,1.2284000000000001e-05,-2.7081e-05,-7.9607e-06,-1.8299000000000002e-05
2021-04-07,16:21:16.001000,-2.5212e-05,1.0267999999999999e-05,1.4688999999999998e-06,1.7604e-05,-2.9897e-07
2021-04-07,16:21:16.003000,-8.1017e-05,1.1217000000000001e-05,1.9962e-05,3.728e-05,2.1805999999999998e-05
2021-04-07,16:21:16.005000,-9.001e-05,1.2716e-05,2.0736e-05,4.2752e-05,2.7507e-05
2021-04-07,16:21:16.007000,-5.0705e-05,1.6728e-05,7.2134e-06,2.6463e-05,1.4188e-05
2021-04-07,16:21:16.009000,2.0083e-05,1.4713e-05,-2.2304000000000002e-05,7.577199999999999e-07,-1.05e-05
2021-04-07,16:21:16.011000,0.00010492,1.2260999999999998e-05,-4.6967e-05,-2.5235e-05,-4.1083e-05
2021-04-07,16:21:16.013000,0.00015706,1.6675999999999998e-05,-6.116800000000001e-05,-4.6216000000000006e-05,-5.7875e-05
2021-04-07,16:21:16.015000,0.00016509,1.0508e-05,-6.9848e-05,-4.866e-05,-6.121e-05
2021-04-07,16:21:16.017000,0.00012475,6.95e-06,-5.2243999999999996e-05,-2.564e-05,-4.6438999999999994e-05
2021-04-07,16:21:16.019000,3.4430999999999996e-05,1.3606e-05,-2.2037e-05,-1.5302e-07,-1.6227e-05
2021-04-07,16:21:16.021000,-3.1162e-05,8.0753e-06,-3.1502e-06,1.6181e-05,5.2516e-06
2021-04-07,16:21:16.023000,-7.086399999999999e-05,4.9589e-06,1.5771e-05,3.9665e-05,2.4756999999999997e-05
2021-04-07,16:21:16.025000,-0.00010893,1.0582e-05,1.9667e-05,4.7073e-05,3.3054e-05
2021-04-07,16:21:16.027000,-6.6315e-05,8.975700000000001e-06,-1.2887e-06,2.4852e-05,1.361e-05
2021-04-07,16:21:16.029000,2.8216e-05,8.0803e-06,-2.4976999999999998e-05,-2.8543e-08,-1.0457999999999999e-05
2021-04-07,16:21:16.031000,9.7701e-05,1.0501e-05,-4.7141e-05,-2.376e-05,-3.502e-05
2021-04-07,16:21:16.033000,0.0001598,1.0313e-05,-6.4751e-05,-4.2796e-05,-5.6398000000000004e-05
2021-04-07,16:21:16.035000,0.00017007,7.4416e-06,-6.9841e-05,-4.4305e-05,-5.6018000000000005e-05
2021-04-07,16:21:16.037000,0.00010597,7.2825e-06,-5.7605e-05,-2.7936999999999997e-05,-3.6225e-05
2021-04-07,16:21:16.039000,3.8477e-05,1.0727e-05,-3.1043e-05,-4.4149e-06,-6.8572e-06
2021-04-07,16:21:16.041000,-2.4481999999999997e-05,1.0329e-05,-3.9841000000000005e-06,1.8473e-05,1.4176e-05
2021-04-07,16:21:16.043000,-8.845700000000001e-05,1.2055e-05,1.5364e-05,4.1638000000000004e-05,2.7054000000000002e-05
2021-04-07,16:21:16.045000,-0.00010258,1.3265e-05,1.4004e-05,4.6766000000000006e-05,3.594e-05
2021-04-07,16:21:16.047000,-4.6351000000000004e-05,8.2881e-06,-7.4814999999999994e-06,2.6544000000000002e-05,1.8515e-05
2021-04-07,16:21:16.049000,3.696e-05,7.0889e-06,-3.368e-05,-1.3897999999999998e-06,-1.3459000000000001e-05
2021-04-07,16:21:16.051000,0.0001079,5.6739e-06,-5.9731e-05,-2.7635999999999998e-05,-3.7198e-05
2021-04-07,16:21:16.053000,0.00015932,3.8970999999999995e-06,-7.431e-05,-4.325e-05,-5.2827e-05
2021-04-07,16:21:16.055000,0.0001616,4.4273e-06,-7.5858e-05,-4.5991999999999996e-05,-5.1751999999999995e-05
2021-04-07,16:21:16.057000,0.00010602,2.0609e-06,-6.828800000000001e-05,-2.9741999999999997e-05,-3.5722e-05
2021-04-07,16:21:16.059000,3.367e-05,5.8459e-06,-4.3426999999999996e-05,2.8628e-06,-1.1173e-05
2021-04-07,16:21:16.061000,-4.5445e-05,1.1114e-05,-1.5135e-05,2.52e-05,1.3483e-05
2021-04-07,16:21:16.063000,-0.00010447,6.6616e-06,1.2146e-06,3.9743e-05,2.9464e-05
2021-04-07,16:21:16.065000,-0.00010424,4.0521e-06,5.654500000000001e-06,4.3923e-05,3.7768e-05
2021-04-07,16:21:16.067000,-6.4668e-05,6.0702e-06,-1.2434000000000002e-05,2.0152e-05,2.1796e-05
2021-04-07,16:21:16.069000,1.3617e-05,5.1239e-06,-4.7013999999999994e-05,-8.2989e-06,-1.1947000000000001e-05
2021-04-07,16:21:16.071000,0.00010304,2.8172000000000003e-06,-7.3867e-05,-2.9356999999999997e-05,-3.5904e-05
2021-04-07,16:21:16.073000,0.00014501,-3.0928000000000003e-07,-8.738700000000001e-05,-4.9466000000000004e-05,-5.205e-05
2021-04-07,16:21:16.075000,0.00015428,1.1774000000000001e-07,-8.762e-05,-5.2905e-05,-5.4531000000000004e-05
2021-04-07,16:21:16.077000,0.00011822,8.0574e-06,-7.0925e-05,-2.8755e-05,-3.4538e-05
2021-04-07,16:21:16.079000,2.908e-05,1.3045999999999998e-05,-4.7142e-05,3.3675999999999997e-06,-8.050800000000001e-06
2021-04-07,16:21:16.081000,-4.679e-05,1.2017e-05,-2.4301e-05,2.1735e-05,1.2838e-05
2021-04-07,16:21:16.083000,-9.318e-05,1.123e-05,-5.058699999999999e-07,4.2263999999999994e-05,3.1107e-05
2021-04-07,16:21:16.085000,-0.00010725,1.1595999999999999e-05,4.1298e-06,5.2126e-05,3.729e-05
2021-04-07,16:21:16.087000,-5.479999999999999e-05,1.2603e-05,-2.127e-05,2.4204e-05,1.8665e-05
2021-04-07,16:21:16.089000,3.1425e-05,1.0447e-05,-4.7519e-05,-4.0694e-06,-5.841900000000001e-06
2021-04-07,16:21:16.091000,9.7474e-05,6.8218e-06,-6.4337e-05,-2.2679e-05,-2.5954000000000003e-05
2021-04-07,16:21:16.093000,0.00014939,6.211900000000001e-06,-7.9265e-05,-4.3206000000000006e-05,-4.5885e-05
2021-04-07,16:21:16.095000,0.00015907,6.6920000000000005e-06,-8.3029e-05,-4.2196999999999996e-05,-4.6914e-05
2021-04-07,16:21:16.097000,9.9466e-05,8.3841e-06,-6.8409e-05,-2.2766e-05,-2.8321e-05
2021-04-07,16:21:16.099000,3.3579e-05,9.7821e-06,-4.2414e-05,5.3574e-07,-5.806e-06
2021-04-07,16:21:16.101000,-2.6843e-05,1.0729e-05,-1.9458e-05,2.4982e-05,2.336e-05
2021-04-07,16:21:16.103000,-9.2571e-05,9.7539e-06,-3.858399999999999e-06,4.1763999999999995e-05,4.3363000000000005e-05
2021-04-07,16:21:16.105000,-0.00010319,6.6080999999999995e-06,-4.0985e-06,3.747e-05,3.4905e-05
2021-04-07,16:21:16.107000,-4.6696e-05,9.3314e-06,-2.7243000000000003e-05,1.605e-05,1.4444000000000001e-05
2021-04-07,16:21:16.109000,3.9198e-05,9.3547e-06,-5.345e-05,-5.535599999999999e-06,-9.71e-06
2021-04-07,16:21:16.111000,0.00011867,2.7083999999999998e-06,-7.5436e-05,-2.9446e-05,-3.7851999999999996e-05
2021-04-07,16:21:16.113000,0.00016256,3.3218e-06,-9.2279e-05,-4.6286000000000004e-05,-5.4457e-05
2021-04-07,16:21:16.115000,0.00016276,6.6038e-06,-9.0614e-05,-4.2643999999999994e-05,-5.116e-05
2021-04-07,16:21:16.117000,0.0001119,8.0789e-06,-7.3859e-05,-2.4993000000000003e-05,-2.9642e-05
2021-04-07,16:21:16.119000,2.8231999999999997e-05,1.0447e-05,-4.8116000000000005e-05,1.4578e-06,-1.4797e-06
2021-04-07,16:21:16.121000,-5.1471e-05,1.0137e-05,-2.195e-05,2.6065999999999997e-05,2.1247e-05
2021-04-07,16:21:16.123000,-9.9403e-05,1.1852000000000001e-05,-7.1456e-06,4.2775e-05,3.4476e-05
2021-04-07,16:21:16.125000,-9.8908e-05,1.3011e-05,-4.1092e-06,4.349e-05,3.4165e-05
2021-04-07,16:21:16.127000,-5.5411e-05,7.6287e-06,-2.0452e-05,1.9933e-05,1.6312e-05
2021-04-07,16:21:16.129000,2.7218000000000003e-05,6.8127e-06,-5.3221000000000004e-05,-1.1619000000000002e-05,-1.441e-05
2021-04-07,16:21:16.131000,0.00011338,1.216e-05,-7.772100000000001e-05,-3.4273e-05,-3.6419e-05
2021-04-07,16:21:16.133000,0.00015585,1.3437e-05,-8.7392e-05,-4.5203999999999996e-05,-4.7116999999999996e-05
2021-04-07,16:21:16.135000,0.00015234,1.1320999999999999e-05,-8.7084e-05,-4.2656999999999995e-05,-5.0163e-05
2021-04-07,16:21:16.137000,9.941700000000001e-05,8.3909e-06,-6.9651e-05,-2.3966e-05,-3.0838e-05
2021-04-07,16:21:16.139000,1.6922e-05,6.801599999999999e-06,-4.4418999999999996e-05,-1.5715000000000001e-06,-5.1471e-06
2021-04-07,16:21:16.141000,-5.677e-05,7.6573e-06,-2.2613000000000002e-05,2.1516999999999997e-05,1.604e-05
2021-04-07,16:21:16.143000,-0.00010684,7.1337e-06,-7.728100000000001e-07,4.496e-05,3.897e-05
2021-04-07,16:21:16.145000,-0.00010925,1.0012999999999999e-05,-1.601e-06,3.8537e-05,3.9148e-05
2021-04-07,16:21:16.147000,-5.143e-05,1.2557999999999999e-05,-2.8176999999999998e-05,1.2169000000000002e-05,1.4212e-05
2021-04-07,16:21:16.149000,3.6334e-05,5.4874e-06,-5.1276e-05,-7.0094e-06,-1.185e-05
2021-04-07,16:21:16.151000,0.00010943,2.2276e-06,-7.1935e-05,-2.9831999999999998e-05,-3.503e-05
2021-04-07,16:21:16.153000,0.00015381,2.9217000000000003e-06,-8.851200000000001e-05,-4.7013999999999994e-05,-5.2932e-05
2021-04-07,16:21:16.155000,0.00014785,-1.2924000000000001e-06,-8.8945e-05,-4.4433999999999995e-05,-5.0731000000000006e-05
2021-04-07,16:21:16.157000,8.123100000000001e-05,-2.4767e-07,-7.1418e-05,-2.6823e-05,-2.6523000000000003e-05
2021-04-07,16:21:16.159000,1.3246e-05,1.1901e-06,-4.1327e-05,-1.5072e-06,-6.1437e-07
2021-04-07,16:21:16.161000,-4.9476000000000005e-05,3.1513000000000004e-07,-1.6338e-05,2.4991999999999997e-05,2.3500999999999997e-05
2021-04-07,16:21:16.163000,-0.00011785,4.0969e-06,-1.7923e-06,4.5588000000000005e-05,4.2273e-05
2021-04-07,16:21:16.165000,-0.00012192,2.3908e-06,-4.0295e-06,4.2785e-05,3.6411999999999996e-05
2021-04-07,16:21:16.167000,-5.3751e-05,2.609e-07,-2.4474e-05,2.1853000000000002e-05,1.747e-05
2021-04-07,16:21:16.169000,2.4824e-05,1.4663999999999998e-06,-4.7293e-05,-1.7504e-06,-6.4996e-06
2021-04-07,16:21:16.171000,9.6324e-05,-5.3281e-06,-7.1368e-05,-3.0496e-05,-3.7855e-05
2021-04-07,16:21:16.173000,0.00014591,-6.4267e-06,-8.4724e-05,-4.6423e-05,-5.1345e-05
2021-04-07,16:21:16.175000,0.00013306,-2.1446e-06,-7.7284e-05,-3.6989e-05,-4.0771e-05
2021-04-07,16:21:16.177000,7.318199999999999e-05,-3.0658e-06,-6.1657e-05,-1.8159e-05,-1.9886e-05
2021-04-07,16:21:16.179000,4.6323e-07,2.3471e-06,-3.6241e-05,8.0937e-06,9.2154e-06
2021-04-07,16:21:16.181000,-7.6837e-05,5.7563e-06,-6.603200000000001e-06,3.5847e-05,3.6713e-05
2021-04-07,16:21:16.183000,-0.00011775,6.4442999999999994e-06,9.893e-06,4.8252e-05,4.9063e-05
2021-04-07,16:21:16.185000,-0.00011245,1.1742e-05,1.0762e-05,4.8676999999999995e-05,4.6507e-05
2021-04-07,16:21:16.187000,-6.1988e-05,8.731e-06,-6.494e-06,3.0774e-05,2.9488000000000003e-05
2021-04-07,16:21:16.189000,3.7863e-05,4.1353e-06,-3.9327e-05,-6.751699999999999e-06,-3.5368e-06
2021-04-07,16:21:16.191000,0.00011100000000000001,5.0347e-06,-6.6177e-05,-3.1672e-05,-2.9707e-05
2021-04-07,16:21:16.193000,0.00013746,6.3314e-06,-7.5405e-05,-3.8621e-05,-3.7427e-05
2021-04-07,16:21:16.195000,0.00014127,6.095e-06,-7.2797e-05,-3.9044e-05,-3.8959000000000004e-05
2021-04-07,16:21:16.197000,8.4172e-05,5.0642000000000006e-06,-5.345399999999999e-05,-1.9486e-05,-1.7668e-05
2021-04-07,16:21:16.199000,-8.4928e-06,6.4641e-06,-2.3605e-05,1.3018e-05,1.6689000000000002e-05
2021-04-07,16:21:16.201000,-7.688e-05,4.3191e-06,-2.3236e-06,3.5693e-05,3.5809e-05
2021-04-07,16:21:16.203000,-0.00011734,3.8061000000000003e-06,1.1445999999999998e-05,5.0711e-05,5.2189e-05
2021-04-07,16:21:16.205000,-0.0001214,7.8475e-06,9.6961e-06,5.0888000000000005e-05,5.0153e-05
2021-04-07,16:21:16.207000,-6.4571e-05,6.9118e-06,-1.4030999999999998e-05,2.5135e-05,2.2606e-05
2021-04-07,16:21:16.209000,2.5976e-05,2.6522e-06,-4.0646e-05,-2.8988e-06,-3.332e-06
2021-04-07,16:21:16.211000,9.952399999999999e-05,-1.0073e-06,-6.0981000000000004e-05,-2.3234e-05,-2.6114e-05
2021-04-07,16:21:16.213000,0.00014501,6.2728e-07,-7.356e-05,-3.9464e-05,-3.7411e-05
2021-04-07,16:21:16.215000,0.00012893,3.9808e-08,-7.358e-05,-3.4816e-05,-3.231e-05
2021-04-07,16:21:16.217000,5.7111e-05,-4.7538e-06,-5.3864e-05,-1.7449000000000002e-05,-1.5894e-05
2021-04-07,16:21:16.219000,-4.4097e-06,-2.9629e-06,-2.1096e-05,2.6213e-06,9.4328e-06
2021-04-07,16:21:16.221000,-7.38e-05,-3.1704e-06,1.7991999999999999e-06,3.3725e-05,3.2468e-05
2021-04-07,16:21:16.223000,-0.00013777,-4.0255e-06,1.3532e-05,4.9099e-05,4.8123999999999995e-05
2021-04-07,16:21:16.225000,-0.00012669,-5.082899999999999e-07,1.2712000000000001e-05,3.7163e-05,4.5315e-05
2021-04-07,16:21:16.227000,-6.4414e-05,-4.9863e-06,-7.9857e-06,2.3185e-05,2.5444000000000002e-05
2021-04-07,16:21:16.229000,1.4359000000000001e-05,-1.1837e-05,-3.8358e-05,4.879999999999999e-07,3.0626e-08
2021-04-07,16:21:16.231000,9.203799999999999e-05,-9.040399999999999e-06,-6.7415e-05,-2.8699999999999996e-05,-2.7006999999999997e-05
2021-04-07,16:21:16.233000,0.00012979,-8.477300000000001e-06,-7.9454e-05,-3.8305e-05,-3.6785999999999996e-05
2021-04-07,16:21:16.235000,0.0001105,-1.5314e-05,-6.828e-05,-3.1821e-05,-2.902e-05
2021-04-07,16:21:16.237000,5.0693000000000004e-05,-1.6009000000000002e-05,-4.5368e-05,-1.2679e-05,-1.4989000000000002e-05
2021-04-07,16:21:16.239000,-2.3283e-05,-1.5264e-05,-2.1301999999999997e-05,1.2809e-05,1.2992999999999999e-05
2021-04-07,16:21:16.241000,-9.903200000000001e-05,-1.7587e-05,-3.05e-06,3.4387e-05,4.098e-05
2021-04-07,16:21:16.243000,-0.00014227,-1.4933e-05,1.0729e-05,5.2256e-05,4.9043000000000005e-05
2021-04-07,16:21:16.245000,-0.00012741,-1.3786e-05,1.1791e-05,4.4763000000000005e-05,4.3601000000000005e-05
2021-04-07,16:21:16.247000,-6.9981e-05,-1.633e-05,-1.0450999999999999e-05,1.7784e-05,2.3565999999999998e-05
2021-04-07,16:21:16.249000,1.2e-05,-1.6986e-05,-4.1073000000000005e-05,-5.7026e-06,-4.9735e-06
2021-04-07,16:21:16.251000,7.7884e-05,-1.9965999999999998e-05,-6.2616e-05,-3.1938000000000005e-05,-2.5498000000000002e-05
2021-04-07,16:21:16.253000,0.00010275,-2.8648e-05,-7.3502e-05,-4.5722e-05,-4.2754e-05
2021-04-07,16:21:16.255000,9.2653e-05,-3.0425e-05,-7.1344e-05,-3.6825e-05,-3.988e-05
2021-04-07,16:21:16.257000,3.7045e-05,-2.3219000000000002e-05,-4.9872e-05,-1.7230999999999998e-05,-1.1128e-05
2021-04-07,16:21:16.259000,-5.3938000000000004e-05,-2.7223000000000003e-05,-2.1966e-05,6.7635000000000005e-06,9.6685e-06
2021-04-07,16:21:16.261000,-0.00012918,-3.0588e-05,-1.4204e-06,2.9659000000000002e-05,2.7995e-05
2021-04-07,16:21:16.263000,-0.00015675,-1.9529000000000002e-05,1.4565999999999999e-05,4.6123999999999994e-05,4.7218999999999996e-05
2021-04-07,16:21:16.265000,-0.00014766,-1.7067e-05,1.2524e-05,3.91e-05,4.1862e-05
2021-04-07,16:21:16.267000,-9.4669e-05,-2.4801999999999997e-05,-1.0732e-05,1.5217999999999999e-05,2.0580999999999998e-05
2021-04-07,16:21:16.269000,-5.833e-06,-2.8459e-05,-3.6288e-05,-5.4613e-06,-5.642e-06
2021-04-07,16:21:16.271000,6.6876e-05,-2.7297e-05,-6.0002e-05,-2.8894e-05,-3.2751e-05
2021-04-07,16:21:16.273000,0.00010216,-2.5031999999999997e-05,-7.1038e-05,-4.2241000000000004e-05,-4.1746e-05
2021-04-07,16:21:16.275000,8.003e-05,-2.6141e-05,-6.0956000000000004e-05,-3.2305e-05,-3.1383e-05
2021-04-07,16:21:16.277000,1.0432000000000001e-05,-2.9508000000000003e-05,-4.111e-05,-1.2495e-05,-1.2435e-05
2021-04-07,16:21:16.279000,-5.1759e-05,-3.0506e-05,-1.8409e-05,1.1317999999999999e-05,9.9458e-06
2021-04-07,16:21:16.281000,-0.00011628,-2.697e-05,5.0642000000000006e-06,3.9204e-05,3.5294e-05
2021-04-07,16:21:16.283000,-0.00017515,-2.4504e-05,2.2775e-05,5.4718999999999996e-05,5.4713e-05
2021-04-07,16:21:16.285000,-0.00016193,-2.5126e-05,1.787e-05,4.1616e-05,4.5803e-05
2021-04-07,16:21:16.287000,-9.183700000000001e-05,-2.5611999999999998e-05,-6.6628e-06,1.9044e-05,2.1804e-05
2021-04-07,16:21:16.289000,-1.6596e-05,-2.8629e-05,-3.1673e-05,-3.4944999999999997e-06,2.9616e-06
2021-04-07,16:21:16.291000,5.5575e-05,-3.0547e-05,-5.5843e-05,-3.1379e-05,-2.2756e-05
2021-04-07,16:21:16.293000,8.9063e-05,-2.8673e-05,-6.8233e-05,-4.1148999999999995e-05,-3.8549e-05
2021-04-07,16:21:16.295000,5.9856000000000004e-05,-2.7473000000000003e-05,-5.9501000000000005e-05,-3.0447e-05,-2.784e-05
2021-04-07,16:21:16.297000,6.4397e-06,-2.7516999999999998e-05,-3.5787e-05,-1.0555999999999999e-05,-6.2190999999999995e-06
2021-04-07,16:21:16.299000,-6.2623e-05,-2.6272e-05,-5.925e-06,1.5801e-05,2.1355e-05
2021-04-07,16:21:16.301000,-0.00013791,-2.2654e-05,1.4467e-05,3.6976999999999995e-05,4.1192e-05
2021-04-07,16:21:16.303000,-0.00017084,-2.0553e-05,2.4536e-05,5.189e-05,4.7699e-05
2021-04-07,16:21:16.305000,-0.00015481,-1.8666e-05,2.197e-05,4.5953999999999994e-05,4.7622e-05
2021-04-07,16:21:16.307000,-9.4199e-05,-1.6879000000000002e-05,1.9179000000000003e-07,1.7809000000000002e-05,2.419e-05
2021-04-07,16:21:16.309000,-4.8549e-06,-1.9963e-05,-2.6793000000000002e-05,-5.9787e-06,-7.4218e-06
2021-04-07,16:21:16.311000,6.1093e-05,-2.1573e-05,-5.1342e-05,-2.8228e-05,-2.5669e-05
2021-04-07,16:21:16.313000,8.7468e-05,-2.1975e-05,-6.605100000000001e-05,-4.5391999999999995e-05,-3.9366e-05
2021-04-07,16:21:16.315000,7.1468e-05,-2.5441999999999998e-05,-5.648e-05,-3.7248e-05,-2.9238e-05
2021-04-07,16:21:16.317000,9.5084e-06,-2.4472e-05,-3.363e-05,-1.1102e-05,-1.7905e-06
2021-04-07,16:21:16.319000,-7.6022e-05,-2.2122e-05,-9.6237e-06,1.6950999999999997e-05,1.7658e-05
2021-04-07,16:21:16.321000,-0.00015181,-2.2326999999999998e-05,1.9193e-05,4.2532e-05,4.2009e-05
2021-04-07,16:21:16.323000,-0.00018064,-1.9727999999999998e-05,3.2798e-05,5.5196000000000005e-05,5.5906e-05
2021-04-07,16:21:16.325000,-0.00016415,-1.9616e-05,1.8176e-05,4.4436999999999995e-05,4.4486999999999996e-05
2021-04-07,16:21:16.327000,-0.00010789,-1.975e-05,-1.6959e-06,2.1600000000000003e-05,2.3699e-05
2021-04-07,16:21:16.329000,-1.8247e-05,-1.7896e-05,-2.0164000000000002e-05,-5.565700000000001e-06,-4.2207e-06
2021-04-07,16:21:16.331000,5.1598e-05,-2.3365e-05,-4.1425e-05,-2.9889e-05,-2.8693e-05
2021-04-07,16:21:16.333000,8.2796e-05,-2.215e-05,-5.2286e-05,-3.4854e-05,-3.3805e-05
2021-04-07,16:21:16.335000,5.9508e-05,-1.5557e-05,-3.9616e-05,-2.4262e-05,-2.0532e-05
2021-04-07,16:21:16.337000,-1.7721e-05,-1.929e-05,-1.4622e-05,-4.9248e-06,-1.9187e-07
2021-04-07,16:21:16.339000,-8.186100000000001e-05,-1.8172e-05,5.0748e-06,2.3668e-05,2.2744e-05
2021-04-07,16:21:16.341000,-0.00013915,-1.5832e-05,3.0241e-05,5.0195e-05,4.8593e-05
2021-04-07,16:21:16.343000,-0.00019223,-1.7427e-05,4.5858999999999996e-05,5.8813e-05,6.053399999999999e-05
2021-04-07,16:21:16.345000,-0.00017142,-1.3834000000000002e-05,2.9758000000000002e-05,4.7956999999999995e-05,5.1118999999999996e-05
2021-04-07,16:21:16.347000,-9.4865e-05,-1.6708e-05,1.0342e-05,2.6781e-05,3.0388e-05
2021-04-07,16:21:16.349000,-2.0447e-05,-2.2312e-05,-9.1244e-06,5.5154e-07,4.7117e-06
2021-04-07,16:21:16.351000,4.5116999999999995e-05,-2.1225e-05,-3.4103e-05,-2.1286999999999998e-05,-1.8401e-05
2021-04-07,16:21:16.353000,7.3806e-05,-1.9909000000000002e-05,-3.9846e-05,-2.9323e-05,-2.5908000000000003e-05
2021-04-07,16:21:16.355000,3.9869e-05,-1.9318e-05,-2.7298000000000002e-05,-2.0113e-05,-1.2237e-05
2021-04-07,16:21:16.357000,-1.4285e-05,-1.6007e-05,-6.2162e-06,4.9373e-06,8.9101e-06
2021-04-07,16:21:16.359000,-7.8674e-05,-1.3719e-05,1.8183e-05,3.2744000000000004e-05,3.1469e-05
2021-04-07,16:21:16.361000,-0.00016054,-1.7898e-05,3.6231e-05,5.1511e-05,5.1237e-05
2021-04-07,16:21:16.363000,-0.00020101,-2.0721e-05,4.7097e-05,6.0973e-05,5.8509e-05
2021-04-07,16:21:16.365000,-0.00018179,-2.0804e-05,4.331e-05,5.8863e-05,5.4458999999999995e-05
2021-04-07,16:21:16.367000,-0.00011364,-1.9678e-05,2.0526e-05,3.4921e-05,3.392e-05
2021-04-07,16:21:16.369000,-2.1235e-05,-1.4569e-05,-6.2578e-06,1.7015000000000001e-06,1.0128999999999999e-05
2021-04-07,16:21:16.371000,3.8228e-05,-1.5441e-05,-2.3303e-05,-1.7100999999999998e-05,-7.284400000000001e-06
2021-04-07,16:21:16.373000,5.7351e-05,-1.9009e-05,-2.8703000000000003e-05,-2.2465e-05,-2.3768000000000004e-05
2021-04-07,16:21:16.375000,3.2983e-05,-1.7145e-05,-2.5960999999999998e-05,-1.2698e-05,-1.4877e-05
2021-04-07,16:21:16.377000,-2.7936999999999997e-05,-1.6275e-05,-8.9455e-06,8.6341e-06,1.1880999999999999e-05
2021-04-07,16:21:16.379000,-0.00010213,-1.4081e-05,2.1686e-05,2.9211e-05,3.2776e-05
2021-04-07,16:21:16.381000,-0.00017431,-9.8363e-06,4.4566999999999995e-05,5.1953e-05,5.5669e-05
2021-04-07,16:21:16.383000,-0.00020287,-9.355700000000001e-06,5.601e-05,6.5601e-05,6.7625e-05
2021-04-07,16:21:16.385000,-0.00018791,-7.3877e-06,4.9817e-05,5.4916999999999996e-05,5.7013000000000005e-05
2021-04-07,16:21:16.387000,-0.00012684,-6.6069e-06,2.2329000000000003e-05,2.8909e-05,3.16e-05
2021-04-07,16:21:16.389000,-3.2111e-05,-1.2262e-05,4.7743e-06,4.482e-06,2.8400999999999997e-06
2021-04-07,16:21:16.391000,2.7334e-05,-1.0835e-05,-8.6634e-06,-1.1942999999999999e-05,-1.3625e-05
2021-04-07,16:21:16.393000,5.6948000000000004e-05,-3.9029e-06,-2.4203000000000002e-05,-2.0689e-05,-2.1107e-05
2021-04-07,16:21:16.395000,3.7591999999999995e-05,-5.4195e-07,-1.1677999999999999e-05,-1.3195e-05,-1.5585e-05
2021-04-07,16:21:16.397000,-4.7153e-05,-4.6284e-07,1.0669e-05,1.1325e-05,1.247e-05
2021-04-07,16:21:16.399000,-0.0001111,-6.1168e-06,2.8077e-05,3.9231e-05,3.929999999999999e-05
2021-04-07,16:21:16.401000,-0.00016287,-5.4699e-06,5.2133000000000004e-05,6.1122e-05,5.7236000000000006e-05
2021-04-07,16:21:16.403000,-0.00021459,-3.2645e-06,6.02e-05,6.7885e-05,6.606e-05
2021-04-07,16:21:16.405000,-0.00018700000000000002,-8.8496e-06,4.6883000000000005e-05,5.378e-05,5.1528999999999994e-05
2021-04-07,16:21:16.407000,-0.00010616,-7.1952e-06,2.9678000000000003e-05,3.0740999999999996e-05,3.2332e-05
2021-04-07,16:21:16.409000,-3.2399e-05,-4.11e-06,3.6775e-06,9.8625e-06,1.2155999999999998e-05
2021-04-07,16:21:16.411000,3.7570999999999997e-05,-5.6031e-06,-2.2476e-05,-1.2991e-05,-1.3772000000000001e-05
2021-04-07,16:21:16.413000,6.2472e-05,-8.1105e-06,-2.7184e-05,-2.4951e-05,-2.0458e-05
2021-04-07,16:21:16.415000,1.4000999999999999e-05,-8.9905e-06,-1.1893e-05,-9.3622e-06,-8.858099999999999e-06
2021-04-07,16:21:16.417000,-5.2007e-05,-4.2555e-06,1.4167e-05,1.5768e-05,1.1105e-05
2021-04-07,16:21:16.419000,-0.00011702,-6.3799e-06,3.7822e-05,3.8579e-05,3.6843e-05
2021-04-07,16:21:16.421000,-0.00018765,-9.7276e-06,5.2446000000000006e-05,6.1922e-05,5.8541999999999996e-05
2021-04-07,16:21:16.423000,-0.00022253,-6.0071000000000005e-06,6.3506e-05,7.2471e-05,6.782399999999999e-05
2021-04-07,16:21:16.425000,-0.00020066,-5.7055e-06,6.0449e-05,6.4118e-05,5.7421000000000005e-05
2021-04-07,16:21:16.427000,-0.00013248,-7.162e-06,3.6629e-05,3.9291999999999996e-05,3.571e-05
2021-04-07,16:21:16.429000,-4.9139e-05,-9.8335e-06,7.7881e-06,7.6723e-06,1.1676e-05
2021-04-07,16:21:16.431000,1.1775999999999999e-05,-1.076e-05,-1.3021e-05,-1.117e-05,-1.1715e-05
2021-04-07,16:21:16.433000,3.447e-05,-1.1098e-05,-2.2973000000000002e-05,-1.7395999999999997e-05,-2.2259e-05
2021-04-07,16:21:16.435000,1.6347e-06,-1.7528e-05,-1.4352e-05,-6.8331e-06,-1.0786e-05
2021-04-07,16:21:16.437000,-7.1371e-05,-1.6775e-05,1.3881e-05,2.2724e-05,1.6767e-05
2021-04-07,16:21:16.439000,-0.00014519,-7.424299999999999e-06,3.8616e-05,4.422e-05,4.2992e-05
2021-04-07,16:21:16.441000,-0.00020675,-4.8996e-06,5.5041000000000004e-05,6.0055e-05,6.2037e-05
2021-04-07,16:21:16.443000,-0.00023752,-7.7514e-06,7.0588e-05,7.5861e-05,7.290600000000001e-05
2021-04-07,16:21:16.445000,-0.00021451,-7.3123e-06,6.5553e-05,6.5461e-05,6.3725e-05
2021-04-07,16:21:16.447000,-0.00014492,-7.5446000000000006e-06,3.6744e-05,3.7644e-05,3.4934e-05
2021-04-07,16:21:16.449000,-6.387600000000001e-05,-9.4764e-06,5.0261e-06,1.2515e-05,4.9823000000000006e-06
2021-04-07,16:21:16.451000,1.1362e-06,-7.6866e-06,-1.3904000000000001e-05,-7.9894e-06,-1.1820999999999999e-05
2021-04-07,16:21:16.453000,2.8028000000000003e-05,-1.033e-05,-1.4713e-05,-1.4429e-05,-1.6694e-05
2021-04-07,16:21:16.455000,-7.599e-06,-1.3487e-05,-1.7976e-06,-2.6248000000000003e-06,-5.8679999999999996e-06
2021-04-07,16:21:16.457000,-7.8997e-05,-7.859e-06,2.1074000000000002e-05,2.3066e-05,1.9251e-05
2021-04-07,16:21:16.459000,-0.00015048,-4.2236000000000005e-06,4.45e-05,4.769e-05,3.8554000000000004e-05
2021-04-07,16:21:16.461000,-0.00021799,-3.6932e-06,6.4605e-05,6.746600000000001e-05,5.8847e-05
2021-04-07,16:21:16.463000,-0.00024827,-4.2413e-06,7.5164e-05,8.2938e-05,7.7084e-05
2021-04-07,16:21:16.465000,-0.00021594,-4.9608e-06,6.396699999999999e-05,7.0648e-05,6.5359e-05
2021-04-07,16:21:16.467000,-0.00014718,-4.072799999999999e-06,4.2699e-05,4.2635e-05,4.2221999999999997e-05
2021-04-07,16:21:16.469000,-7.2175e-05,-6.1543e-06,1.9191e-05,2.1056e-05,2.1722e-05
2021-04-07,16:21:16.471000,-1.0053e-05,-7.3253e-06,-2.6358999999999996e-06,-3.0445e-06,-2.6433999999999995e-06
2021-04-07,16:21:16.473000,7.2087e-06,-9.819199999999999e-06,-6.9637e-06,-1.0571e-05,-9.6613e-06
2021-04-07,16:21:16.475000,-3.6475e-05,-1.1548e-05,6.9038e-06,8.8153e-06,5.3897e-06
2021-04-07,16:21:16.477000,-0.00010038,-7.6515e-06,3.0180999999999998e-05,3.4121e-05,2.9113e-05
2021-04-07,16:21:16.479000,-0.00016147,-7.8481e-06,5.5384e-05,5.9147e-05,5.4897e-05
2021-04-07,16:21:16.481000,-0.00023109,-9.0334e-06,7.6029e-05,7.931399999999999e-05,7.4654e-05
2021-04-07,16:21:16.483000,-0.00026604,-5.5884000000000006e-06,8.4664e-05,8.47e-05,8.3304e-05
2021-04-07,16:21:16.485000,-0.00022843,-2.5286000000000002e-06,7.4094e-05,7.262100000000001e-05,7.46e-05
2021-04-07,16:21:16.487000,-0.00015337,-5.8787e-06,4.9793e-05,4.8168000000000004e-05,4.759e-05
2021-04-07,16:21:16.489000,-7.7387e-05,-9.891699999999999e-06,2.3817e-05,1.9633e-05,1.821e-05
2021-04-07,16:21:16.491000,-2.1081e-05,-7.2962e-06,4.2389e-06,1.6466999999999998e-06,1.6466e-06
2021-04-07,16:21:16.493000,-6.5491e-06,-9.3166e-06,9.448e-07,4.9455e-06,-2.1976e-06
2021-04-07,16:21:16.495000,-4.0662e-05,-1.0486e-05,1.5967e-05,2.2139e-05,1.0192e-05
2021-04-07,16:21:16.497000,-0.00011726,-4.2211e-06,3.7479e-05,4.4953e-05,3.8105e-05
2021-04-07,16:21:16.499000,-0.00019568,-1.9241999999999997e-06,6.167e-05,6.7493e-05,6.2745e-05
2021-04-07,16:21:16.501000,-0.00024761,-1.9775e-06,8.441e-05,8.6341e-05,8.0472e-05
2021-04-07,16:21:16.503000,-0.00028198,-4.2574e-06,9.1559e-05,9.5871e-05,8.965799999999999e-05
2021-04-07,16:21:16.505000,-0.00025238,-4.5881999999999995e-06,7.8427e-05,8.2835e-05,7.675600000000001e-05
2021-04-07,16:21:16.507000,-0.00016101,-1.3783000000000002e-06,5.2827e-05,5.4681999999999996e-05,5.0601000000000006e-05
2021-04-07,16:21:16.509000,-9.0791e-05,-3.3860000000000003e-06,2.8609e-05,3.069e-05,2.802e-05
2021-04-07,16:21:16.511000,-4.4439e-05,-3.0926e-06,1.2589000000000001e-05,1.2594000000000002e-05,1.0239e-05
2021-04-07,16:21:16.516000,-6.1923e-05,9.6829e-06,4.4212e-06,9.0855e-05,3.0798e-06
2021-04-07,16:21:16.518000,-9.2225e-05,7.3035e-05,7.7492e-05,0.00015289,3.508e-05
2021-04-07,16:21:16.520000,-0.00017626,3.4845e-05,6.5142e-05,0.00014067,5.1403e-05
2021-04-07,16:21:16.522000,-0.00024465,5.8782e-05,0.00011135,0.00019285,8.7215e-05
2021-04-07,16:21:16.524000,-0.0003031,4.2091e-05,0.00012052,0.00020093,0.00010433
2021-04-07,16:21:16.526000,-0.0003337,4.5543e-05,0.00012452,0.00020846,0.00011149
2021-04-07,16:21:16.528000,-0.00029171,4.747100000000001e-05,0.00010849,0.00019823,9.539100000000001e-05
2021-04-07,16:21:16.530000,-0.00020601,3.8036e-05,8.0187e-05,0.00016622,6.427100000000001e-05
2021-04-07,16:21:16.532000,-0.00013169,4.6588e-05,6.7309e-05,0.00014954,3.6241e-05
2021-04-07,16:21:16.534000,-7.104399999999999e-05,4.0296e-05,3.7222e-05,0.00012012,1.7723e-05
2021-04-07,16:21:16.536000,-4.3163e-05,4.4303999999999995e-05,3.156e-05,0.00011365,1.6804e-05
2021-04-07,16:21:16.538000,-8.889799999999999e-05,4.6862e-05,5.2843e-05,0.00013306,2.7344e-05
2021-04-07,16:21:16.540000,-0.00015776,4.5238e-05,7.5556e-05,0.00015498,5.4368e-05
2021-04-07,16:21:16.542000,-0.00021988,5.2086e-05,0.00010252,0.00018305,8.1052e-05
2021-04-07,16:21:16.544000,-0.000286,4.909e-05,0.00012027,0.00020346,9.7989e-05
2021-04-07,16:21:16.546000,-0.00030643,4.7674e-05,0.00012355,0.00020723,0.0001079
2021-04-07,16:21:16.548000,-0.00026761,4.8577e-05,0.00011121,0.00019199,9.426200000000001e-05
2021-04-07,16:21:16.550000,-0.00019634,4.7446000000000006e-05,8.6443e-05,0.00016558,6.5353e-05
2021-04-07,16:21:16.552000,-0.00011307,4.7653e-05,5.8842e-05,0.00013868,3.6606e-05
2021-04-07,16:21:16.554000,-5.2857e-05,4.5585e-05,4.3028e-05,0.00011938,2.0697e-05
2021-04-07,16:21:16.556000,-3.9021e-05,4.5396000000000004e-05,3.839e-05,0.00011406,2.143e-05
2021-04-07,16:21:16.558000,-7.5463e-05,4.6689e-05,4.4158e-05,0.00012761,3.4115e-05
2021-04-07,16:21:16.560000,-0.00014417,5.3303e-05,7.7111e-05,0.00015757,6.4435e-05
2021-04-07,16:21:16.562000,-0.00021128,6.3304e-05,0.00010705,0.00018072,8.955e-05
2021-04-07,16:21:16.564000,-0.00026124,6.0151e-05,0.00011503,0.00019686,0.00010057
2021-04-07,16:21:16.566000,-0.00028854,5.4198999999999994e-05,0.00012226,0.00020763,0.00011001
2021-04-07,16:21:16.568000,-0.0002525,5.6492e-05,0.00010988,0.00018975,9.5031e-05
2021-04-07,16:21:16.570000,-0.00015496,5.4045e-05,7.971600000000001e-05,0.00015873,6.1425e-05
2021-04-07,16:21:16.572000,-8.209200000000001e-05,5.0291000000000004e-05,5.6491000000000005e-05,0.00013436,3.6377e-05
2021-04-07,16:21:16.574000,-4.1108e-05,4.9253000000000004e-05,3.6845e-05,0.00011492,1.918e-05
2021-04-07,16:21:16.576000,-1.5101e-05,4.8323000000000005e-05,3.2727e-05,0.00011109,1.7957e-05
2021-04-07,16:21:16.578000,-5.7724e-05,5.1792e-05,5.1238e-05,0.00012439,3.6595e-05
2021-04-07,16:21:16.580000,-0.00014012,5.4462e-05,7.741e-05,0.00015125,6.0545e-05
2021-04-07,16:21:16.582000,-0.00020655,5.6587e-05,9.8595e-05,0.00017779,8.1821e-05
2021-04-07,16:21:16.584000,-0.00026272,5.8918999999999996e-05,0.00011268,0.00019238,0.00010129
2021-04-07,16:21:16.586000,-0.00028492,5.8235e-05,0.00011909,0.00020179,0.00010924
2021-04-07,16:21:16.588000,-0.00023576,5.971e-05,0.00010209999999999999,0.00018745,9.1894e-05
2021-04-07,16:21:16.590000,-0.00014316,6.1352e-05,7.1838e-05,0.00015035,5.9305e-05
2021-04-07,16:21:16.592000,-7.186100000000001e-05,5.8616e-05,4.9436000000000006e-05,0.00012397,2.8994e-05
2021-04-07,16:21:16.594000,-2.1913000000000002e-05,5.0605e-05,3.067e-05,0.00010845,1.2532e-05
2021-04-07,16:21:16.596000,-3.2817000000000003e-06,4.6379e-05,2.6916999999999997e-05,0.00010344,1.4792e-05
2021-04-07,16:21:16.598000,-5.4705e-05,5.3111999999999996e-05,4.3043999999999996e-05,0.00011906,2.7751999999999998e-05
2021-04-07,16:21:16.600000,-0.0001273,5.5035e-05,6.5712e-05,0.00014642,4.9016999999999995e-05
2021-04-07,16:21:16.602000,-0.00019419,5.0083e-05,9.0037e-05,0.00017331,7.767e-05
2021-04-07,16:21:16.604000,-0.00025601,5.1658999999999994e-05,0.00010813,0.00018894,9.915799999999999e-05
2021-04-07,16:21:16.606000,-0.00027214,5.4384e-05,0.00011375,0.00018776,0.00010088
2021-04-07,16:21:16.608000,-0.00023193,5.2483e-05,0.00010076,0.00017384,8.431e-05
2021-04-07,16:21:16.610000,-0.00014855,5.0336e-05,7.2346e-05,0.00015125,5.8158e-05
2021-04-07,16:21:16.612000,-6.5065e-05,4.7023e-05,4.3726999999999997e-05,0.00012239,3.1843e-05
2021-04-07,16:21:16.614000,-1.3053e-05,4.3936e-05,2.5172e-05,9.9956e-05,1.5804e-05
2021-04-07,16:21:16.616000,-3.4357e-07,4.4428e-05,2.2688e-05,9.8367e-05,1.2617e-05
2021-04-07,16:21:16.618000,-4.4283e-05,4.3382e-05,3.3937e-05,0.00011606,2.42e-05
2021-04-07,16:21:16.620000,-0.00012185,4.327e-05,5.842e-05,0.00014206,5.423e-05
2021-04-07,16:21:16.622000,-0.00019927,4.73e-05,8.4229e-05,0.00015957,7.9208e-05
2021-04-07,16:21:16.624000,-0.00025075,4.9515e-05,9.4955e-05,0.00017035,8.8936e-05
2021-04-07,16:21:16.626000,-0.00026151,5.2992e-05,0.00010204,0.00018314,9.6977e-05
2021-04-07,16:21:16.628000,-0.00021475,5.8776999999999996e-05,9.5747e-05,0.00017297,8.177899999999999e-05
2021-04-07,16:21:16.630000,-0.00011429,6.2186e-05,6.4314e-05,0.00013945,4.8053e-05
2021-04-07,16:21:16.632000,-3.7928e-05,6.3692e-05,4.1238999999999996e-05,0.00011798,2.7801e-05
2021-04-07,16:21:16.634000,4.3749e-06,6.9008e-05,3.4226e-05,0.00011045,1.2138e-05
2021-04-07,16:21:16.636000,3.4309e-05,8.0507e-05,3.289e-05,0.00010791,9.673099999999999e-06
2021-04-07,16:21:16.638000,-2.8352999999999998e-06,8.439600000000001e-05,4.8706000000000004e-05,0.00012336,3.074e-05
2021-04-07,16:21:16.640000,-8.7505e-05,8.1401e-05,7.4055e-05,0.00015467,5.4124e-05
2021-04-07,16:21:16.642000,-0.00015435,8.643899999999999e-05,9.7216e-05,0.00018378,7.763e-05
2021-04-07,16:21:16.644000,-0.00019923,9.7255e-05,0.00011690000000000001,0.00020807,9.8681e-05
2021-04-07,16:21:16.646000,-0.00021324,0.00010708,0.00012126,0.00021743,0.0001056
2021-04-07,16:21:16.648000,-0.00016533,0.00010888,0.00010373,0.0001994,9.1876e-05
2021-04-07,16:21:16.650000,-7.329899999999999e-05,0.00010821,7.6371e-05,0.00016917,5.9499999999999996e-05
2021-04-07,16:21:16.652000,6.0110000000000006e-06,0.00011437,5.4131999999999996e-05,0.00014409999999999998,3.636e-05
2021-04-07,16:21:16.654000,6.3734e-05,0.00012046,4.1165e-05,0.00013271,2.9784e-05
2021-04-07,16:21:16.656000,8.1775e-05,0.00012735,4.3728e-05,0.0001341,2.8368000000000004e-05
2021-04-07,16:21:16.658000,2.9583e-05,0.00013051,6.0753999999999995e-05,0.00014619,4.5768e-05
2021-04-07,16:21:16.660000,-3.9835999999999996e-05,0.0001284,8.4357e-05,0.00017165,7.306600000000001e-05
2021-04-07,16:21:16.662000,-0.00010194,0.00013398,0.00011463,0.00019916,9.507600000000001e-05
2021-04-07,16:21:16.664000,-0.00016298,0.0001383,0.000133,0.00021937,0.00011615
2021-04-07,16:21:16.666000,-0.00017045,0.0001393,0.00013187,0.00022743,0.00011865
2021-04-07,16:21:16.668000,-0.00011566,0.00014335,0.00012375,0.0002137,9.6692e-05
2021-04-07,16:21:16.670000,-2.5059000000000002e-05,0.00014688,0.00010284,0.00017992,6.937399999999999e-05
2021-04-07,16:21:16.672000,7.3789e-05,0.00015344,7.7989e-05,0.00014442,4.656e-05
2021-04-07,16:21:16.674000,0.00011763,0.000145,6.2521e-05,0.00012244,2.7519000000000002e-05
2021-04-07,16:21:16.676000,9.6075e-05,0.00012013,5.5835e-05,0.00011154,2.1941e-05
2021-04-07,16:21:16.678000,4.7124e-05,0.00010824,6.4651e-05,0.00011656,4.2028000000000005e-05
2021-04-07,16:21:16.680000,-2.8779e-05,0.00010384,8.267200000000001e-05,0.00013319,6.7229e-05
2021-04-07,16:21:16.682000,-0.00010995,0.00010155,9.9635e-05,0.00014507,8.929700000000001e-05
2021-04-07,16:21:16.684000,-0.00015394,0.00010739,0.00011220000000000002,0.00015935,0.00011502
2021-04-07,16:21:16.686000,-0.00016721,0.00010649,0.00010842,0.00016511,0.00012335
2021-04-07,16:21:16.688000,-0.00013577,9.574e-05,8.4676e-05,0.00014414,0.00010465
2021-04-07,16:21:16.690000,-5.2453e-05,8.4538e-05,5.4341999999999996e-05,0.00011318,6.8336e-05
2021-04-07,16:21:16.692000,1.8044000000000002e-05,7.6661e-05,2.9072e-05,9.0564e-05,3.5957e-05
2021-04-07,16:21:16.694000,5.5356e-05,7.460899999999999e-05,1.4237000000000001e-05,8.119899999999999e-05,2.2885e-05
2021-04-07,16:21:16.696000,6.133600000000001e-05,7.2926e-05,1.4202e-05,8.4568e-05,2.2745e-05
2021-04-07,16:21:16.698000,9.0122e-06,7.1926e-05,2.5808e-05,0.00010291,3.8269e-05
2021-04-07,16:21:16.700000,-7.0263e-05,7.5195e-05,4.6258e-05,0.000129,6.1153e-05
2021-04-07,16:21:16.702000,-0.00014048,7.2555e-05,7.1141e-05,0.00015327,7.808399999999999e-05
2021-04-07,16:21:16.704000,-0.00019716,7.0293e-05,8.8989e-05,0.00017454,9.2579e-05
2021-04-07,16:21:16.706000,-0.00020669999999999998,7.3596e-05,8.9575e-05,0.00017511,9.7505e-05
2021-04-07,16:21:16.708000,-0.00014758,7.161899999999999e-05,6.606300000000001e-05,0.00015338,8.3338e-05
2021-04-07,16:21:16.710000,-5.9789e-05,6.996300000000001e-05,3.9390999999999996e-05,0.0001256,5.4696999999999995e-05
2021-04-07,16:21:16.712000,6.580800000000001e-06,6.576e-05,2.2983000000000003e-05,9.9172e-05,2.84e-05
2021-04-07,16:21:16.714000,4.9173999999999994e-05,5.9267e-05,5.2604e-06,8.8834e-05,1.582e-05
2021-04-07,16:21:16.716000,5.3608e-05,6.032e-05,3.4943e-06,9.316200000000001e-05,1.7413e-05
2021-04-07,16:21:16.718000,-6.2734e-06,5.7048999999999995e-05,2.0864000000000002e-05,0.00010458,3.4851e-05
2021-04-07,16:21:16.720000,-8.0723e-05,5.1475e-05,4.102e-05,0.00012652,6.0223e-05
2021-04-07,16:21:16.722000,-0.00014196,4.9664e-05,6.2661e-05,0.00014753,8.2706e-05
2021-04-07,16:21:16.724000,-0.00020756,4.4846000000000004e-05,7.3254e-05,0.00015859999999999998,9.4095e-05
2021-04-07,16:21:16.726000,-0.00021636,4.2913e-05,7.0261e-05,0.00015836,8.9428e-05
2021-04-07,16:21:16.728000,-0.0001506,3.8949e-05,5.4013999999999995e-05,0.00014159,7.089e-05
2021-04-07,16:21:16.730000,-7.4232e-05,3.3425e-05,2.3583e-05,0.0001121,4.0958e-05
2021-04-07,16:21:16.732000,3.2622000000000003e-06,3.9495999999999996e-05,-1.7666e-07,8.3581e-05,1.5558e-05
2021-04-07,16:21:16.734000,4.5068e-05,3.985e-05,-1.4458e-05,6.8166e-05,4.8574e-06
2021-04-07,16:21:16.736000,2.3267e-05,2.7680999999999998e-05,-1.669e-05,6.9187e-05,5.5463e-06
2021-04-07,16:21:16.738000,-1.6783e-05,2.5725e-05,7.5972e-06,8.6269e-05,2.2124e-05
2021-04-07,16:21:16.740000,-8.5482e-05,3.0522e-05,3.1921e-05,0.00011234,4.5691999999999996e-05
2021-04-07,16:21:16.742000,-0.00016901,2.8020999999999998e-05,4.6023e-05,0.00013431,6.8156e-05
2021-04-07,16:21:16.744000,-0.00021321,2.6425e-05,6.8147e-05,0.00014952,8.6214e-05
2021-04-07,16:21:16.746000,-0.00021867,2.4206999999999997e-05,6.869e-05,0.00015102,8.374299999999999e-05
2021-04-07,16:21:16.748000,-0.00016672,1.8595e-05,4.1876000000000004e-05,0.00012838,6.6244e-05
2021-04-07,16:21:16.750000,-7.4602e-05,2.0515e-05,1.7467e-05,9.9774e-05,4.1323000000000004e-05
2021-04-07,16:21:16.752000,-8.3658e-06,2.4200999999999997e-05,-8.303500000000001e-06,7.865199999999999e-05,8.1506e-06
2021-04-07,16:21:16.754000,2.9314e-05,2.7345e-05,-2.2976999999999997e-05,6.0344e-05,-9.8081e-06
2021-04-07,16:21:16.756000,3.2712e-05,2.7660999999999998e-05,-1.884e-05,6.2866e-05,-1.6466e-06
2021-04-07,16:21:16.758000,-2.0291e-05,2.1164e-05,-6.9423000000000004e-06,8.6062e-05,2.0004e-05
2021-04-07,16:21:16.760000,-0.00010411,1.0397e-05,2.7051999999999998e-05,0.00012093,3.0493e-05
2021-04-07,16:21:16.762000,-0.00019054,-1.7069000000000002e-05,7.3705e-05,0.00018228,1.7856e-05
2021-04-07,16:21:16.764000,-0.00026132,-5.1847e-05,0.00010991,0.00024215,7.636599999999999e-07
2021-04-07,16:21:16.766000,-0.00029007,-0.00010087,0.00012901,0.00027533,-3.9770999999999996e-05
2021-04-07,16:21:16.768000,-0.00025112,-0.00015931,0.00012585,0.00028918,-0.00010137
2021-04-07,16:21:16.770000,-0.00017247,-0.00018654,0.00012144,0.00029497,-0.0001538
2021-04-07,16:21:16.772000,-0.00012667,-0.00021830000000000002,0.00012522,0.00031912,-0.00021794
2021-04-07,16:21:16.774000,-9.6874e-05,-0.00022721,0.00013087,0.0003348,-0.00025463
2021-04-07,16:21:16.776000,-5.6996e-05,-0.00016108,0.00017342,0.00034285,-0.00024317
2021-04-07,16:21:16.778000,-6.6046e-05,-9.489600000000001e-05,0.00022428,0.00037591,-0.00021434
2021-04-07,16:21:16.780000,-0.00011892,-1.9327e-05,0.00020800000000000001,0.00041036,-0.00014358
2021-04-07,16:21:16.782000,-0.00017923,7.7024e-05,0.0001643,0.00047423,-6.38e-05
2021-04-07,16:21:16.784000,-0.00021356,0.00016621,0.00011255,0.00052119,2.3563e-05
2021-04-07,16:21:16.786000,-0.00014434,0.00034056,2.7576999999999997e-05,0.00049829,0.00013636
2021-04-07,16:21:16.788000,5.4473e-06,0.00056809,-4.664899999999999e-05,0.00045908,0.00021204
2021-04-07,16:21:16.790000,0.00019421,0.00076471,-0.00013154,0.00031887,0.00027792
2021-04-07,16:21:16.792000,0.0004448,0.00099055,-0.00021756,7.107399999999999e-05,0.00036289999999999993
2021-04-07,16:21:16.794000,0.00067874,0.0012362999999999999,-0.0002278,-0.00017064,0.00043802
2021-04-07,16:21:16.796000,0.00082478,0.0014165999999999998,-0.00022432,-0.00040013,0.00049939
2021-04-07,16:21:16.798000,0.00092369,0.0015050999999999999,-0.00022804,-0.00060955,0.0005546
2021-04-07,16:21:16.800000,0.0010194,0.0015871,-0.00017191,-0.00078585,0.00061055
2021-04-07,16:21:16.802000,0.0010832,0.0016190999999999998,-9.9666e-05,-0.00089386,0.00061618
2021-04-07,16:21:16.804000,0.0010744,0.0014707000000000001,-4.9365e-05,-0.00098211,0.00057592
2021-04-07,16:21:16.806000,0.0010764000000000001,0.0013362,-3.4121999999999996e-05,-0.0011021,0.00054234
2021-04-07,16:21:16.808000,0.0010915,0.0012009,-6.1023e-05,-0.0011435,0.00049218
2021-04-07,16:21:16.810000,0.001008,0.00085771,-7.422800000000001e-05,-0.0010958,0.00042526
2021-04-07,16:21:16.812000,0.00082903,0.00053216,-0.00016515,-0.00096756,0.00038242
2021-04-07,16:21:16.814000,0.00052141,0.00029072,-0.00038663,-0.0007593,0.00038371
2021-04-07,16:21:16.816000,0.00015825,6.6727e-05,-0.00050067,-0.00056387,0.00038173
2021-04-07,16:21:16.818000,-6.2116e-05,-3.363e-05,-0.00043563,-0.00040799,0.00034219999999999997
2021-04-07,16:21:16.820000,-0.00018127,-8.379799999999999e-05,-0.00034004,-0.00031222,0.00030151
2021-04-07,16:21:16.822000,-0.0002372,-7.7005e-05,-0.00023265,-0.00024796,0.00025832
2021-04-07,16:21:16.824000,-0.00021119,-2.974e-06,-0.00012132,-0.00016967,0.00021551
2021-04-07,16:21:16.826000,-0.00017963,1.2697e-05,-6.211e-05,-0.00012316,0.00016726
2021-04-07,16:21:16.828000,-0.00011444,1.4843000000000001e-06,-4.8024e-05,-0.00010855,9.371700000000001e-05
2021-04-07,16:21:16.830000,-7.3544e-06,5.0864999999999995e-06,-4.2623e-05,-0.00010522,4.2436000000000005e-05
2021-04-07,16:21:16.832000,9.2706e-05,3.5066e-05,-2.7269e-05,-0.00010469,1.6813e-05
2021-04-07,16:21:16.834000,0.00018172,8.645e-05,-3.1971e-06,-8.7288e-05,-7.5176e-06
2021-04-07,16:21:16.836000,0.00020479,0.00011014,3.0734e-05,-5.3877e-05,-1.3031e-05
2021-04-07,16:21:16.838000,0.00015432,0.00011832,6.5132e-05,-1.6295999999999998e-05,-6.853200000000001e-06
2021-04-07,16:21:16.840000,8.0415e-05,0.00010963,8.761299999999999e-05,1.6965e-05,1.0948e-05
2021-04-07,16:21:16.842000,-2.9038e-06,8.6494e-05,0.00010785,4.8883e-05,3.804e-05
2021-04-07,16:21:16.844000,-5.7966e-05,7.6157e-05,0.00011725,6.5788e-05,4.2995e-05
2021-04-07,16:21:16.846000,-5.1546000000000004e-05,6.7381e-05,0.00010436,6.4332e-05,2.9324000000000002e-05
2021-04-07,16:21:16.848000,-5.0307e-06,5.8676000000000005e-05,8.4571e-05,5.9499999999999996e-05,7.954e-06
2021-04-07,16:21:16.850000,6.0321e-05,5.184e-05,6.3506e-05,3.9585e-05,-2.4939e-05
2021-04-07,16:21:16.852000,0.00013095,4.1698e-05,3.9701e-05,1.2214e-05,-4.8403000000000004e-05
2021-04-07,16:21:16.854000,0.00015683,3.6804e-05,2.707e-05,3.4961000000000003e-06,-5.6133e-05
2021-04-07,16:21:16.856000,0.00012596,3.6216999999999996e-05,3.648e-05,1.3997e-05,-5.6754e-05
2021-04-07,16:21:16.858000,8.313899999999999e-05,3.5783e-05,5.9811e-05,3.9244e-05,-4.0067e-05
2021-04-07,16:21:16.860000,2.0816e-05,4.0328000000000004e-05,8.7021e-05,6.9329e-05,-1.1855e-05
2021-04-07,16:21:16.862000,-5.6364e-05,4.3603e-05,0.00011278,9.2241e-05,1.022e-05
2021-04-07,16:21:16.864000,-9.203899999999999e-05,4.2286e-05,0.00012574,0.00010704,1.8599e-05
2021-04-07,16:21:16.866000,-7.5764e-05,4.6701000000000006e-05,0.00011945,0.00010556,1.271e-05
2021-04-07,16:21:16.868000,-1.8412999999999998e-05,4.8552e-05,0.00010061,8.7385e-05,-6.7114e-06
2021-04-07,16:21:16.870000,7e-05,4.5722e-05,7.467199999999999e-05,6.4315e-05,-3.7492e-05
2021-04-07,16:21:16.872000,0.00014309,4.8253999999999996e-05,5.0166999999999996e-05,3.8095e-05,-6.3013e-05
2021-04-07,16:21:16.874000,0.00017027,4.8625e-05,4.111100000000001e-05,2.2316999999999997e-05,-7.205800000000001e-05
2021-04-07,16:21:16.876000,0.00016134,5.147e-05,4.5388999999999995e-05,3.5836e-05,-6.2145e-05
2021-04-07,16:21:16.878000,0.0001105,5.6366e-05,6.1945e-05,5.9368000000000005e-05,-4.0586999999999996e-05
2021-04-07,16:21:16.880000,3.2427e-05,5.1513e-05,8.895200000000001e-05,7.5085e-05,-2.4106999999999998e-05
2021-04-07,16:21:16.882000,-3.4945e-05,4.9133e-05,0.00010996,0.00010088,-1.7549000000000001e-06
2021-04-07,16:21:16.884000,-7.8525e-05,5.1603e-05,0.00012448,0.00012075,1.8772999999999998e-05
2021-04-07,16:21:16.886000,-6.2606e-05,4.8375e-05,0.00012414,0.00011017,7.8223e-06
2021-04-07,16:21:16.888000,7.0942e-06,4.1757e-05,0.00010057,9.068700000000001e-05,-1.8035999999999998e-05
2021-04-07,16:21:16.890000,7.393e-05,3.6738e-05,7.4248e-05,6.5333e-05,-4.3076000000000006e-05
2021-04-07,16:21:16.892000,0.00013537,3.3389e-05,4.8777e-05,3.6596999999999995e-05,-7.0271e-05
2021-04-07,16:21:16.894000,0.00017198,2.6408000000000002e-05,3.273e-05,2.4475999999999997e-05,-8.686e-05
2021-04-07,16:21:16.896000,0.00014743,2.4007e-05,4.4182e-05,2.8100000000000002e-05,-8.2582e-05
2021-04-07,16:21:16.898000,8.322e-05,2.9203e-05,6.530300000000001e-05,4.7202e-05,-6.1978e-05
2021-04-07,16:21:16.900000,1.2639e-05,2.8039e-05,8.7441e-05,7.2203e-05,-3.8799999999999994e-05
2021-04-07,16:21:16.902000,-5.2508e-05,2.7658000000000002e-05,0.00011162,9.3224e-05,-1.8125e-05
2021-04-07,16:21:16.904000,-9.412e-05,2.743e-05,0.00012058,0.00010636,-5.796799999999999e-06
2021-04-07,16:21:16.906000,-7.1762e-05,2.1498000000000003e-05,0.00011549,9.6339e-05,-1.4444000000000001e-05
2021-04-07,16:21:16.908000,4.6921000000000006e-07,2.211e-05,9.9755e-05,7.409e-05,-3.8971e-05
2021-04-07,16:21:16.910000,7.4028e-05,2.0575999999999997e-05,7.3438e-05,5.3043999999999996e-05,-6.731699999999999e-05
2021-04-07,16:21:16.912000,0.00014380000000000003,1.7704000000000002e-05,5.2138e-05,2.6436999999999998e-05,-9.026e-05
2021-04-07,16:21:16.914000,0.00017678,2.1326999999999998e-05,4.3698999999999996e-05,1.0514000000000001e-05,-0.00010036
2021-04-07,16:21:16.916000,0.00014937,1.9712e-05,5.2543e-05,1.9355e-05,-9.567899999999999e-05
2021-04-07,16:21:16.918000,9.5005e-05,1.9438e-05,7.4767e-05,3.6191999999999995e-05,-7.5087e-05
2021-04-07,16:21:16.920000,2.5217e-05,2.1283000000000003e-05,9.9465e-05,5.6918e-05,-4.6488e-05
2021-04-07,16:21:16.922000,-4.1031999999999996e-05,2.0342e-05,0.00012223,8.433799999999999e-05,-2.6431999999999997e-05
2021-04-07,16:21:16.924000,-6.4877e-05,2.4671999999999997e-05,0.00013497,9.468299999999999e-05,-2.0168e-05
2021-04-07,16:21:16.926000,-3.952e-05,2.9724000000000002e-05,0.00013216,8.0361e-05,-2.6275e-05
2021-04-07,16:21:16.928000,2.7567e-05,3.0434e-05,0.00010636,5.9214e-05,-4.8265e-05
2021-04-07,16:21:16.930000,0.00011798,2.6883000000000003e-05,7.3367e-05,3.4705999999999996e-05,-7.5824e-05
2021-04-07,16:21:16.932000,0.00018259,2.3987e-05,6.1052e-05,7.9713e-06,-9.816e-05
2021-04-07,16:21:16.934000,0.00019887,2.3928000000000002e-05,5.6307e-05,-5.934600000000001e-06,-0.00011248
2021-04-07,16:21:16.936000,0.00018374,2.2264000000000002e-05,6.1003999999999994e-05,3.634e-06,-0.00010241
2021-04-07,16:21:16.938000,0.0001291,2.2488000000000002e-05,8.6614e-05,2.6276e-05,-7.757800000000001e-05
2021-04-07,16:21:16.940000,5.3222e-05,2.2607e-05,0.00010891,4.6683999999999996e-05,-6.1045e-05
2021-04-07,16:21:16.942000,-6.775299999999999e-06,2.1064e-05,0.00012589,6.3716e-05,-4.2118999999999994e-05
2021-04-07,16:21:16.944000,-4.5583999999999996e-05,2.0496999999999997e-05,0.00013779,7.5147e-05,-2.547e-05
2021-04-07,16:21:16.946000,-2.049e-05,2.2686e-05,0.00012821,6.852e-05,-3.5066e-05
2021-04-07,16:21:16.948000,6.4251e-05,2.823e-05,0.00010528,4.2875e-05,-6.2741e-05
2021-04-07,16:21:16.950000,0.00013572,2.7764e-05,7.8173e-05,1.2648e-05,-8.7135e-05
2021-04-07,16:21:16.952000,0.00019517,2.5483000000000003e-05,5.9281000000000004e-05,-1.0678e-05,-0.00011169
2021-04-07,16:21:16.954000,0.00023736,2.938e-05,5.8551e-05,-1.9367999999999998e-05,-0.00012558
2021-04-07,16:21:16.956000,0.00021176,3.0007e-05,6.616699999999999e-05,-8.3786e-06,-0.00010707
2021-04-07,16:21:16.958000,0.00014399,2.8307e-05,8.5034e-05,1.4300999999999999e-05,-8.7577e-05
2021-04-07,16:21:16.960000,8.3626e-05,3.1571999999999995e-05,0.00011303,3.3208000000000005e-05,-7.4049e-05
2021-04-07,16:21:16.962000,2.5956e-05,3.5025e-05,0.00013517,4.947e-05,-4.4446e-05
2021-04-07,16:21:16.964000,-1.5379e-05,3.5635e-05,0.00014739,6.1282e-05,-3.295e-05
2021-04-07,16:21:16.966000,1.0501e-05,3.4188e-05,0.00014,5.1606999999999996e-05,-4.7124e-05
2021-04-07,16:21:16.968000,8.839e-05,2.8159e-05,0.00011397,2.9543e-05,-6.872e-05
2021-04-07,16:21:16.970000,0.00016038,2.4013000000000002e-05,9.221e-05,5.992100000000001e-06,-9.7594e-05
2021-04-07,16:21:16.972000,0.00022648,2.7999e-05,7.618100000000001e-05,-2.0403e-05,-0.00011495
2021-04-07,16:21:16.974000,0.00026211,2.8918000000000003e-05,6.408399999999999e-05,-3.1678000000000004e-05,-0.00011919
2021-04-07,16:21:16.976000,0.00023035,2.7961999999999998e-05,7.4488e-05,-2.4452e-05,-0.00011604
2021-04-07,16:21:16.978000,0.00017628,3.6346999999999996e-05,9.7185e-05,-7.7553e-06,-9.884200000000001e-05
2021-04-07,16:21:16.980000,0.00011592,4.1135e-05,0.00011591,1.7619000000000002e-05,-7.0762e-05
2021-04-07,16:21:16.982000,5.0111e-05,3.7907e-05,0.00013834,3.6682e-05,-4.4754e-05
2021-04-07,16:21:16.984000,2.0063e-05,3.7884e-05,0.00015275,4.1846000000000006e-05,-3.689e-05
2021-04-07,16:21:16.986000,4.2495e-05,3.661e-05,0.00014482,3.5992e-05,-4.6621000000000006e-05
2021-04-07,16:21:16.988000,0.00012098,3.5106e-05,0.00012074,1.264e-05,-7.0742e-05
2021-04-07,16:21:16.990000,0.00021196,3.5108e-05,9.3856e-05,-1.956e-05,-0.00010017
2021-04-07,16:21:16.992000,0.00027292,3.0555e-05,7.6107e-05,-4.4578999999999994e-05,-0.00012157
2021-04-07,16:21:16.994000,0.00030504,3.0285999999999998e-05,6.7004e-05,-5.6942e-05,-0.00013339
2021-04-07,16:21:16.996000,0.00028508,3.4237e-05,7.4306e-05,-4.7671000000000005e-05,-0.00012486
2021-04-07,16:21:16.998000,0.00022239,3.3398e-05,0.00010312,-2.4695e-05,-0.00010126
2021-04-07,16:21:17,0.00014919,3.48e-05,0.00013114,-6.8661e-06,-8.029100000000001e-05
2021-04-07,16:21:17.002000,8.748399999999999e-05,3.8619000000000004e-05,0.00014943,9.2448e-06,-6.0833e-05
2021-04-07,16:21:17.004000,6.4452e-05,4.0323e-05,0.00015916,2.004e-05,-4.936e-05
2021-04-07,16:21:17.006000,9.734e-05,4.1718e-05,0.00015094,8.164e-06,-5.9571e-05
2021-04-07,16:21:17.008000,0.00017679,4.0926e-05,0.00012974,-2.142e-05,-8.4244e-05
2021-04-07,16:21:17.010000,0.00024672,4.2991e-05,0.00010125,-4.7633e-05,-0.00011005
2021-04-07,16:21:17.012000,0.00030807,4.5947e-05,7.826e-05,-7.1139e-05,-0.00013423
2021-04-07,16:21:17.014000,0.0003508,4.1715e-05,7.6402e-05,-8.7934e-05,-0.00014242
2021-04-07,16:21:17.016000,0.00031585,4.0034e-05,8.7261e-05,-7.4803e-05,-0.00012884
2021-04-07,16:21:17.018000,0.00026118,4.383e-05,0.00011213,-5.841e-05,-0.00010663
2021-04-07,16:21:17.020000,0.00019486,4.5403e-05,0.00013971,-4.233e-05,-8.032699999999999e-05
2021-04-07,16:21:17.022000,9.6711e-05,4.4838e-05,0.00015268,4.7063e-06,-5.8848e-05
2021-04-07,16:21:17.024000,6.3755e-05,4.5146000000000004e-05,0.00016176,2.7448000000000002e-05,-4.9381e-05
2021-04-07,16:21:17.026000,0.00010567,4.7233e-05,0.00015498,6.0244e-06,-5.7978e-05
2021-04-07,16:21:17.028000,0.00017721,4.6695e-05,0.00013179,-1.6948e-05,-8.3589e-05
2021-04-07,16:21:17.030000,0.0002537,4.771e-05,0.00010613,-4.6358999999999994e-05,-0.00010903
2021-04-07,16:21:17.032000,0.00031007,5.2485e-05,7.9552e-05,-7.0181e-05,-0.00013309999999999998
2021-04-07,16:21:17.034000,0.00035543,4.6143e-05,8.218799999999999e-05,-8.2885e-05,-0.00014151
2021-04-07,16:21:17.036000,0.00035689,3.4066e-05,0.00010759999999999999,-9.282e-05,-0.00012113
2021-04-07,16:21:17.038000,0.00030229,2.855e-05,0.00012839,-7.5307e-05,-9.6738e-05
2021-04-07,16:21:17.040000,0.00023544,2.4520999999999998e-05,0.00015666,-4.735e-05,-7.2728e-05
2021-04-07,16:21:17.042000,0.00017475,2.5731999999999997e-05,0.00017763,-3.2528000000000004e-05,-4.9034e-05
2021-04-07,16:21:17.044000,0.0001467,2.5861999999999997e-05,0.00018087,-2.3711e-05,-4.1025e-05
2021-04-07,16:21:17.046000,0.00017651,1.937e-05,0.00017621,-3.4456e-05,-4.5305e-05
2021-04-07,16:21:17.048000,0.00025239,1.6502e-05,0.00015077,-6.3506e-05,-6.583e-05
2021-04-07,16:21:17.050000,0.00033461,1.1866e-05,0.00012047,-9.4191e-05,-9.654100000000001e-05
2021-04-07,16:21:17.052000,0.00039106,1.1972e-05,0.00010645,-0.00011889,-0.00011423
2021-04-07,16:21:17.054000,0.00041345,1.7902e-05,9.9565e-05,-0.00012628,-0.00011921
2021-04-07,16:21:17.056000,0.00039135,1.4818e-05,0.00010906,-0.00011431,-0.00010689
2021-04-07,16:21:17.058000,0.00032599999999999996,1.3948e-05,0.00013342,-9.2346e-05,-8.016e-05
2021-04-07,16:21:17.060000,0.00024521,1.05e-05,0.00014974,-7.241e-05,-5.8024e-05
2021-04-07,16:21:17.062000,0.00018486,1.6463e-06,0.00016366,-5.5567e-05,-3.326e-05
2021-04-07,16:21:17.064000,0.00015773,3.3409999999999995e-07,0.00017719,-4.5393000000000004e-05,-1.7878e-05
2021-04-07,16:21:17.066000,0.00018554,-7.0732e-06,0.00016555,-5.7191e-05,-3.1701e-05
2021-04-07,16:21:17.068000,0.00027098,-1.4432999999999999e-05,0.00013095,-8.4232e-05,-5.2348e-05
2021-04-07,16:21:17.070000,0.00034219,-1.5657999999999998e-05,0.00010319,-0.00011027,-7.2628e-05
2021-04-07,16:21:17.072000,0.00038678,-2.2516999999999998e-05,8.5426e-05,-0.00013022,-9.534100000000001e-05
2021-04-07,16:21:17.074000,0.00041704,-2.5324e-05,7.1746e-05,-0.00013931,-9.9801e-05
2021-04-07,16:21:17.076000,0.00038421,-2.6711999999999998e-05,7.803600000000001e-05,-0.0001311,-8.149600000000001e-05
2021-04-07,16:21:17.078000,0.00030869999999999997,-3.339e-05,0.00010143,-0.00010616,-5.3891e-05
2021-04-07,16:21:17.080000,0.00023475,-3.7798e-05,0.00012035,-7.8441e-05,-2.5767e-05
2021-04-07,16:21:17.082000,0.00016872,-3.913e-05,0.00013419,-5.9427e-05,-2.7050999999999997e-06
2021-04-07,16:21:17.084000,0.00013485,-4.2916999999999996e-05,0.00013827,-5.2055e-05,9.966e-06
2021-04-07,16:21:17.086000,0.00015884,-5.010399999999999e-05,0.00011991,-5.8942e-05,4.4725e-06
2021-04-07,16:21:17.088000,0.00022922,-5.3465e-05,9.452799999999999e-05,-7.9842e-05,-2.0714000000000002e-05
2021-04-07,16:21:17.090000,0.00029505,-5.7087e-05,6.9637e-05,-0.00010475,-4.4526999999999996e-05
2021-04-07,16:21:17.092000,0.00034414,-6.2766e-05,4.0843e-05,-0.00012189,-5.5136e-05
2021-04-07,16:21:17.094000,0.00036109,-6.2801e-05,2.9202e-05,-0.00012737,-6.1e-05
2021-04-07,16:21:17.096000,0.00030884,-5.8675e-05,3.7291e-05,-0.00011443,-4.9678999999999996e-05
2021-04-07,16:21:17.098000,0.00023685,-5.4951e-05,5.106e-05,-8.5042e-05,-2.0271e-05
2021-04-07,16:21:17.100000,0.00016772,-5.7091000000000006e-05,7.1159e-05,-5.6211e-05,4.9121e-06
2021-04-07,16:21:17.102000,9.135700000000001e-05,-5.6012e-05,8.470899999999999e-05,-3.6194e-05,2.1909e-05
2021-04-07,16:21:17.104000,5.922e-05,-4.8734e-05,8.2032e-05,-2.5271e-05,3.2856e-05
2021-04-07,16:21:17.106000,8.269799999999999e-05,-4.9555e-05,6.575e-05,-2.9123000000000002e-05,2.9178e-05
2021-04-07,16:21:17.108000,0.00014506,-5.0267e-05,3.5833e-05,-4.9872e-05,2.3113e-06
2021-04-07,16:21:17.110000,0.00021981,-4.7532e-05,4.8661e-06,-7.302e-05,-2.7088000000000002e-05
2021-04-07,16:21:17.112000,0.00026019,-4.7026999999999995e-05,-2.1513000000000002e-05,-8.928799999999999e-05,-4.4133999999999995e-05
2021-04-07,16:21:17.114000,0.00025963,-4.2321000000000004e-05,-3.8106e-05,-9.3975e-05,-5.3661999999999995e-05
2021-04-07,16:21:17.116000,0.00022313,-3.6686e-05,-3.0497e-05,-7.5907e-05,-3.7439e-05
2021-04-07,16:21:17.118000,0.00015438,-2.7655e-05,-1.3568e-05,-4.9024e-05,-9.8704e-06
2021-04-07,16:21:17.120000,7.2947e-05,-1.6552e-05,6.441500000000001e-07,-2.4285e-05,6.4234e-06
2021-04-07,16:21:17.122000,2.7048000000000003e-06,-1.6947e-05,1.5044e-05,1.6863999999999999e-06,2.5525e-05
2021-04-07,16:21:17.124000,-2.9361999999999998e-05,-2.3081999999999997e-05,1.4710999999999999e-05,1.2428e-05,3.3114e-05
2021-04-07,16:21:17.126000,2.2552e-06,-2.6109e-05,-2.7824000000000002e-06,2.3533e-06,1.7408e-05
2021-04-07,16:21:17.128000,7.879399999999999e-05,-2.6971e-05,-2.9315e-05,-2.0184000000000002e-05,-9.1507e-06
2021-04-07,16:21:17.130000,0.00014088,-2.8717e-05,-6.0463e-05,-4.5386e-05,-3.7863e-05
2021-04-07,16:21:17.132000,0.00017852,-2.8699999999999996e-05,-8.160100000000001e-05,-6.2307e-05,-5.596e-05
2021-04-07,16:21:17.134000,0.00019409999999999997,-1.9452e-05,-8.628e-05,-6.6058e-05,-5.7753999999999996e-05
2021-04-07,16:21:17.136000,0.00015478,-1.0989000000000001e-05,-8.001e-05,-4.9406e-05,-4.541899999999999e-05
2021-04-07,16:21:17.138000,7.608800000000001e-05,-8.914e-06,-6.561699999999999e-05,-2.517e-05,-2.7639e-05
2021-04-07,16:21:17.140000,5.2153e-06,-5.5349e-06,-4.293e-05,-3.6313999999999997e-06,-5.225e-06
2021-04-07,16:21:17.142000,-5.2311999999999997e-05,-5.217200000000001e-06,-2.1851999999999997e-05,2.0493000000000002e-05,1.8818e-05
2021-04-07,16:21:17.144000,-8.3207e-05,-7.469400000000001e-06,-1.8144e-05,2.8216e-05,2.3106999999999997e-05
2021-04-07,16:21:17.146000,-4.6153000000000003e-05,-9.451e-06,-3.2568000000000004e-05,1.6319e-05,1.0234e-05
2021-04-07,16:21:17.148000,2.9931999999999997e-05,-1.4608e-05,-6.1841e-05,-5.0547e-06,-1.2878e-05
2021-04-07,16:21:17.150000,9.5168e-05,-1.839e-05,-9.1851e-05,-3.4980999999999996e-05,-4.4728e-05
2021-04-07,16:21:17.152000,0.00015664,-1.6978e-05,-0.00010555,-5.2693999999999994e-05,-6.1984e-05
2021-04-07,16:21:17.154000,0.00018011,-1.3162e-05,-0.00010975,-5.3843999999999995e-05,-6.0357e-05
2021-04-07,16:21:17.156000,0.0001309,-1.4485e-05,-0.00010149,-4.151e-05,-5.0093e-05
2021-04-07,16:21:17.158000,5.4021e-05,-1.7215e-05,-7.887600000000001e-05,-1.5237e-05,-2.7899000000000002e-05
2021-04-07,16:21:17.160000,-1.0782000000000001e-05,-1.0938e-05,-5.6794e-05,6.8516e-06,-1.7819e-06
2021-04-07,16:21:17.162000,-6.184e-05,-4.3417e-06,-3.8194e-05,2.6819000000000002e-05,1.2367e-05
2021-04-07,16:21:17.164000,-8.6608e-05,-3.9131e-06,-3.1479e-05,3.3499e-05,1.7777e-05
2021-04-07,16:21:17.166000,-5.402e-05,-7.1045e-06,-4.2773e-05,1.4421e-05,1.2070999999999998e-05
2021-04-07,16:21:17.168000,2.5441999999999998e-05,-8.8768e-06,-6.6381e-05,-6.499099999999999e-06,-1.6553e-05
2021-04-07,16:21:17.170000,0.000105,-2.5763e-06,-9.4284e-05,-3.3368e-05,-4.4542e-05
2021-04-07,16:21:17.172000,0.00015476,-8.002600000000002e-07,-0.0001097,-5.6553999999999994e-05,-5.5737e-05
2021-04-07,16:21:17.174000,0.00016216,-8.1011e-06,-0.00011401,-5.4607e-05,-6.3606e-05
2021-04-07,16:21:17.176000,0.00013143,-8.3417e-06,-0.00010577,-4.0993999999999994e-05,-5.512e-05
2021-04-07,16:21:17.178000,6.3953e-05,-5.3459e-06,-7.5585e-05,-1.4062999999999999e-05,-2.5235e-05
2021-04-07,16:21:17.180000,-1.4751e-05,-8.031e-06,-5.2067e-05,6.3031e-06,-1.8472999999999999e-06
2021-04-07,16:21:17.182000,-6.3155e-05,-6.5213e-06,-4.1636000000000006e-05,1.3152e-05,1.1745999999999999e-05
2021-04-07,16:21:17.184000,-8.2095e-05,-3.1495e-07,-3.108e-05,2.8875e-05,2.3111e-05
2021-04-07,16:21:17.186000,-4.7867e-05,-7.4071e-07,-4.3588000000000003e-05,1.6971e-05,1.0607e-05
2021-04-07,16:21:17.188000,4.0879e-05,-3.3976e-06,-7.5594e-05,-2.0289000000000002e-05,-2.4066e-05
2021-04-07,16:21:17.190000,0.00011196,-2.4514e-06,-0.00010419,-4.2606000000000005e-05,-5.03e-05
2021-04-07,16:21:17.192000,0.00015151,-4.3363e-06,-0.00012067,-6.0987e-05,-6.7097e-05
2021-04-07,16:21:17.194000,0.00016686,-6.4975e-06,-0.00011732,-6.2717e-05,-7.041899999999999e-05
2021-04-07,16:21:17.196000,0.00012569,-7.9207e-06,-0.00010081,-4.0542e-05,-5.0146000000000004e-05
2021-04-07,16:21:17.198000,4.6376000000000005e-05,-1.0187000000000001e-05,-7.562e-05,-1.9964e-05,-2.7592e-05
2021-04-07,16:21:17.200000,-2.076e-05,-8.8605e-06,-5.1853e-05,8.281000000000001e-07,-9.6076e-06
2021-04-07,16:21:17.202000,-7.353e-05,-1.0414e-05,-3.6672e-05,1.9571e-05,1.1489000000000001e-05
2021-04-07,16:21:17.204000,-0.00010067,-1.2155e-05,-3.0446e-05,2.2354e-05,1.7849e-05
2021-04-07,16:21:17.206000,-5.5545e-05,-8.888099999999999e-06,-4.5552e-05,3.4823e-06,-1.1173999999999999e-06
2021-04-07,16:21:17.208000,2.9679e-05,-9.7492e-06,-6.8542e-05,-2.826e-05,-3.0509000000000002e-05
2021-04-07,16:21:17.210000,0.00010261,-1.4330999999999999e-05,-8.960399999999999e-05,-5.1418e-05,-5.6616e-05
2021-04-07,16:21:17.212000,0.0001582,-1.9592e-05,-0.00010893,-6.3123e-05,-6.9715e-05
2021-04-07,16:21:17.214000,0.00016057,-2.0375e-05,-0.00010784,-6.2189e-05,-6.859e-05
2021-04-07,16:21:17.216000,0.00011076,-1.555e-05,-9.0345e-05,-4.598e-05,-5.7641000000000006e-05
2021-04-07,16:21:17.218000,4.3496000000000005e-05,-1.4569e-05,-6.6424e-05,-2.3848000000000003e-05,-3.2953e-05
2021-04-07,16:21:17.220000,-3.1063000000000004e-05,-1.3467999999999999e-05,-4.1011000000000004e-05,1.5754e-06,-3.7169e-06
2021-04-07,16:21:17.222000,-8.3606e-05,-1.0404e-05,-2.5275e-05,1.9768e-05,1.4700999999999999e-05
2021-04-07,16:21:17.224000,-9.4022e-05,-1.2369000000000001e-05,-2.1247e-05,2.0224e-05,1.6558e-05
2021-04-07,16:21:17.226000,-5.277100000000001e-05,-1.4047000000000001e-05,-3.3489000000000004e-05,4.4922e-06,-1.4746e-06
2021-04-07,16:21:17.228000,2.8269e-05,-1.2262e-05,-5.9572e-05,-2.2138e-05,-2.9929e-05
2021-04-07,16:21:17.230000,0.00010446,-1.4207e-05,-8.8339e-05,-4.6262e-05,-5.5398999999999996e-05
2021-04-07,16:21:17.232000,0.00015532,-1.3915999999999999e-05,-0.00010678,-6.4692e-05,-7.0178e-05
2021-04-07,16:21:17.234000,0.00016543,-9.7008e-06,-0.00010361,-7.1541e-05,-7.2471e-05
2021-04-07,16:21:17.236000,0.00011885,-1.6602e-05,-8.6999e-05,-5.267e-05,-5.9927e-05
2021-04-07,16:21:17.238000,3.8426e-05,-2.1176999999999997e-05,-6.2635e-05,-2.2319e-05,-3.1269e-05
2021-04-07,16:21:17.240000,-3.1613000000000004e-05,-1.5757000000000002e-05,-3.8817e-05,-1.0596e-06,-5.4133e-06
2021-04-07,16:21:17.242000,-7.661899999999999e-05,-1.7706e-05,-2.6379e-05,1.5623e-05,1.0243e-05
2021-04-07,16:21:17.244000,-9.7791e-05,-1.8985e-05,-1.9693e-05,2.316e-05,1.8749e-05
2021-04-07,16:21:17.246000,-5.8673999999999994e-05,-2.0365999999999998e-05,-3.1606e-05,3.3973e-06,3.0968e-06
2021-04-07,16:21:17.248000,3.1894e-05,-2.5231999999999998e-05,-6.0543e-05,-2.6403e-05,-3.0006e-05
2021-04-07,16:21:17.250000,0.00010052,-2.434e-05,-8.3103e-05,-4.5489e-05,-5.4414e-05
2021-04-07,16:21:17.252000,0.00013953,-2.5123000000000003e-05,-0.00010054,-6.4638e-05,-6.9173e-05
2021-04-07,16:21:17.254000,0.00015211,-2.2999e-05,-0.00010119,-6.883800000000001e-05,-7.3521e-05
2021-04-07,16:21:17.256000,0.00010252,-2.033e-05,-8.0846e-05,-4.3873000000000005e-05,-5.8232e-05
2021-04-07,16:21:17.258000,2.3829000000000002e-05,-2.4894000000000003e-05,-6.0617e-05,-2.0096e-05,-3.2262e-05
2021-04-07,16:21:17.260000,-4.0209e-05,-2.3746e-05,-4.0524e-05,-4.462e-06,-1.0252000000000001e-05
2021-04-07,16:21:17.262000,-9.622600000000001e-05,-1.9635e-05,-2.1036e-05,1.4019e-05,5.4891e-06
2021-04-07,16:21:17.264000,-0.00010657,-1.9016e-05,-1.8157999999999998e-05,1.497e-05,1.0087999999999999e-05
2021-04-07,16:21:17.266000,-4.7561999999999996e-05,-2.1997e-05,-3.8819e-05,-3.831e-06,-8.7576e-06
2021-04-07,16:21:17.268000,2.1166e-05,-2.6783e-05,-6.607e-05,-2.2513000000000003e-05,-3.7765e-05
2021-04-07,16:21:17.270000,8.3515e-05,-2.7796e-05,-8.593899999999999e-05,-4.5108e-05,-5.6053999999999996e-05
2021-04-07,16:21:17.272000,0.00014346,-3.2977e-05,-0.00010382,-6.6871e-05,-7.464699999999999e-05
2021-04-07,16:21:17.274000,0.00014468,-3.7479e-05,-0.00010529,-7.0112e-05,-7.8466e-05
2021-04-07,16:21:17.276000,8.937700000000001e-05,-3.1378000000000003e-05,-8.319100000000001e-05,-5.6179e-05,-5.1796000000000003e-05
2021-04-07,16:21:17.278000,2.0404e-05,-2.8523e-05,-6.0724e-05,-3.0308000000000002e-05,-2.6909e-05
2021-04-07,16:21:17.280000,-5.7061e-05,-3.2969e-05,-4.0738e-05,-3.3035000000000002e-06,-5.7601999999999995e-06
2021-04-07,16:21:17.282000,-0.00011302,-3.3859e-05,-2.2646e-05,1.2587e-05,1.2795e-05
2021-04-07,16:21:17.284000,-0.00011293,-3.0007e-05,-2.064e-05,1.555e-05,1.3243e-05
2021-04-07,16:21:17.286000,-6.1295e-05,-2.8623e-05,-3.4204e-05,1.5999000000000001e-06,-1.9288e-06
2021-04-07,16:21:17.288000,1.6765e-05,-2.9055e-05,-6.1117e-05,-2.7082e-05,-3.1636e-05
2021-04-07,16:21:17.290000,9.5526e-05,-2.3936e-05,-9.0384e-05,-5.6121999999999996e-05,-5.3251e-05
2021-04-07,16:21:17.292000,0.00013941,-2.5475999999999998e-05,-0.00010222,-6.9908e-05,-6.3677e-05
2021-04-07,16:21:17.294000,0.00012674,-3.6863e-05,-0.00010041,-6.354100000000001e-05,-6.8138e-05
2021-04-07,16:21:17.296000,8.312200000000001e-05,-3.3263e-05,-8.750799999999999e-05,-4.3453999999999994e-05,-4.596899999999999e-05
2021-04-07,16:21:17.298000,1.5103e-05,-2.6887e-05,-6.347899999999999e-05,-1.9993e-05,-1.9874e-05
2021-04-07,16:21:17.300000,-6.0581e-05,-3.5258e-05,-4.154e-05,-7.2321e-07,-2.665e-06
2021-04-07,16:21:17.302000,-0.00010646,-3.7921e-05,-2.4713000000000002e-05,1.5045e-05,1.6198e-05
2021-04-07,16:21:17.304000,-0.00011906,-3.8206e-05,-1.9078e-05,1.7593e-05,1.9335e-05
2021-04-07,16:21:17.306000,-7.5224e-05,-4.0926999999999996e-05,-3.9576e-05,-9.4429e-07,5.8851e-07
2021-04-07,16:21:17.308000,9.5636e-06,-3.9261e-05,-7.1234e-05,-2.5306999999999997e-05,-2.8984000000000002e-05
2021-04-07,16:21:17.310000,7.7705e-05,-4.2033e-05,-8.7208e-05,-4.8468000000000004e-05,-5.0293e-05
2021-04-07,16:21:17.312000,0.00011768,-4.5577e-05,-9.7286e-05,-6.4559e-05,-6.057e-05
2021-04-07,16:21:17.314000,0.00011872,-4.4853e-05,-9.8283e-05,-5.8812e-05,-6.0896e-05
2021-04-07,16:21:17.316000,6.962199999999999e-05,-3.9671e-05,-7.5422e-05,-3.8414e-05,-3.9484000000000003e-05
2021-04-07,16:21:17.318000,-7.5313e-06,-3.6854e-05,-5.4887e-05,-1.5817e-05,-1.4475999999999998e-05
2021-04-07,16:21:17.320000,-8.1758e-05,-4.1668e-05,-3.5488e-05,6.5764e-06,4.3722e-06
2021-04-07,16:21:17.322000,-0.00013461,-4.0044e-05,-1.3198e-05,2.248e-05,2.2798e-05
2021-04-07,16:21:17.324000,-0.00013832,-4.061e-05,-1.5507999999999998e-05,2.3788000000000003e-05,2.4727e-05
2021-04-07,16:21:17.326000,-8.1613e-05,-4.926e-05,-3.4989e-05,5.9524e-06,6.7859000000000005e-06
2021-04-07,16:21:17.328000,-5.1022e-06,-4.8068e-05,-6.379399999999999e-05,-2.1175e-05,-1.9905e-05
2021-04-07,16:21:17.330000,6.281699999999999e-05,-4.4649e-05,-9.162100000000001e-05,-4.483e-05,-4.5286999999999995e-05
2021-04-07,16:21:17.332000,0.00010614,-4.556e-05,-9.9751e-05,-6.1281e-05,-5.6274e-05
2021-04-07,16:21:17.334000,9.945200000000001e-05,-4.2135e-05,-9.295399999999999e-05,-6.1249e-05,-5.0333e-05
2021-04-07,16:21:17.336000,4.5751e-05,-3.7832e-05,-7.366399999999999e-05,-4.2136000000000005e-05,-3.6868e-05
2021-04-07,16:21:17.338000,-2.9202e-05,-3.6507e-05,-5.1367e-05,-1.2583e-05,-1.5621e-05
2021-04-07,16:21:17.340000,-0.00010306,-3.8155e-05,-2.7476999999999998e-05,1.4209e-05,1.3463e-05
2021-04-07,16:21:17.342000,-0.00015693,-3.9443e-05,-9.8044e-06,2.5863000000000003e-05,3.2666e-05
2021-04-07,16:21:17.344000,-0.00015732,-3.8903000000000003e-05,-1.7346e-05,2.6436e-05,3.2199e-05
2021-04-07,16:21:17.346000,-9.6764e-05,-4.0463e-05,-3.1863e-05,1.0819000000000001e-05,1.3500000000000001e-05
2021-04-07,16:21:17.348000,-1.728e-05,-4.0666e-05,-5.0675e-05,-2.0637e-05,-1.506e-05
2021-04-07,16:21:17.350000,5.0322e-05,-4.3808000000000005e-05,-7.6891e-05,-4.2876999999999996e-05,-3.9953e-05
2021-04-07,16:21:17.352000,8.6266e-05,-4.8617e-05,-9.085299999999999e-05,-5.4608e-05,-5.351e-05
2021-04-07,16:21:17.354000,7.858e-05,-4.2927e-05,-9.0054e-05,-5.2294e-05,-4.6773e-05
2021-04-07,16:21:17.356000,3.6976999999999995e-05,-4.4105e-05,-6.976600000000001e-05,-2.9846999999999997e-05,-2.6345e-05
2021-04-07,16:21:17.358000,-3.6706e-05,-4.9834e-05,-4.142e-05,-6.8389e-06,2.8776e-07
2021-04-07,16:21:17.360000,-0.00011671,-4.1808000000000004e-05,-2.1586e-05,1.7561e-05,2.9327e-05
2021-04-07,16:21:17.362000,-0.00016316,-4.0934e-05,-1.6193000000000001e-06,3.844e-05,4.1451999999999995e-05
2021-04-07,16:21:17.364000,-0.00016939,-4.2126e-05,2.0599e-06,3.8991999999999995e-05,3.961e-05
2021-04-07,16:21:17.366000,-0.00012570000000000002,-3.7933000000000004e-05,-2.2188e-05,1.9754e-05,2.3744000000000002e-05
2021-04-07,16:21:17.368000,-4.0034e-05,-4.5659e-05,-4.9175e-05,-1.3707000000000001e-05,-8.4235e-06
2021-04-07,16:21:17.370000,3.5041e-05,-4.7323999999999996e-05,-6.9704e-05,-3.6666e-05,-3.029e-05
2021-04-07,16:21:17.372000,6.4651e-05,-4.4225e-05,-8.641299999999999e-05,-4.3193000000000005e-05,-4.1048000000000004e-05
2021-04-07,16:21:17.374000,5.5533999999999994e-05,-5.1036000000000004e-05,-8.1665e-05,-4.1553999999999996e-05,-3.8728e-05
2021-04-07,16:21:17.376000,8.6445e-06,-4.7683000000000004e-05,-5.5008999999999995e-05,-1.9495999999999998e-05,-1.355e-05
2021-04-07,16:21:17.378000,-6.7989e-05,-4.2165e-05,-3.3401e-05,7.3778e-06,1.009e-05
2021-04-07,16:21:17.380000,-0.00013695,-4.6451999999999995e-05,-1.3701e-05,2.4900999999999998e-05,2.8185999999999997e-05
2021-04-07,16:21:17.382000,-0.0001851,-4.1476e-05,6.6575e-06,4.1654e-05,4.6825e-05
2021-04-07,16:21:17.384000,-0.00018222,-3.5015e-05,7.2790999999999995e-06,3.9971999999999996e-05,4.5456000000000007e-05
2021-04-07,16:21:17.386000,-0.00011258,-3.8378000000000004e-05,-9.9424e-06,1.5417e-05,2.2596999999999997e-05
2021-04-07,16:21:17.388000,-4.519e-05,-4.3136e-05,-3.9095e-05,-6.8741e-06,-2.9666e-07
2021-04-07,16:21:17.390000,8.2681e-06,-4.3233000000000004e-05,-6.3554e-05,-2.8076e-05,-2.0688000000000003e-05
2021-04-07,16:21:17.392000,5.5839e-05,-3.289e-05,-6.7194e-05,-4.3798e-05,-3.4751e-05
2021-04-07,16:21:17.394000,4.2121000000000005e-05,-3.2305e-05,-5.9265e-05,-3.229e-05,-2.2556e-05
2021-04-07,16:21:17.396000,-2.1841e-05,-4.1129e-05,-3.9928e-05,-1.05e-05,-2.4381e-07
2021-04-07,16:21:17.398000,-9.2473e-05,-3.6906e-05,-1.4082999999999999e-05,1.0905e-05,1.7409000000000002e-05
2021-04-07,16:21:17.400000,-0.00016228,-3.7239e-05,7.9276e-06,3.9584e-05,4.4066e-05
2021-04-07,16:21:17.402000,-0.00020824,-3.4948000000000005e-05,2.0555e-05,5.4359e-05,6.0922e-05
2021-04-07,16:21:17.404000,-0.00020071,-2.8083000000000002e-05,1.6839000000000003e-05,4.6498e-05,5.4011e-05
2021-04-07,16:21:17.406000,-0.00014657,-3.6296e-05,2.9634e-06,2.8941e-05,3.3846e-05
2021-04-07,16:21:17.408000,-7.0508e-05,-3.6101e-05,-1.9597e-05,4.1678e-06,6.6453e-06
2021-04-07,16:21:17.410000,9.5455e-06,-3.0475e-05,-4.5753e-05,-1.9152e-05,-1.466e-05
2021-04-07,16:21:17.412000,4.371e-05,-3.3569e-05,-5.5236000000000004e-05,-2.5465e-05,-2.4388e-05
2021-04-07,16:21:17.414000,1.4254000000000001e-05,-3.4394e-05,-4.8821000000000006e-05,-1.95e-05,-2.0408e-05
2021-04-07,16:21:17.416000,-3.3765e-05,-3.3571999999999996e-05,-3.3196e-05,-4.8858e-06,-5.286199999999999e-07
2021-04-07,16:21:17.418000,-0.00010185,-3.1806999999999995e-05,-4.6988e-06,2.1978000000000002e-05,2.6293e-05
2021-04-07,16:21:17.420000,-0.00017977,-3.3429e-05,1.9114e-05,4.319399999999999e-05,4.8691000000000005e-05
2021-04-07,16:21:17.422000,-0.00021736,-3.4165e-05,2.8352e-05,5.4353e-05,6.2321e-05
2021-04-07,16:21:17.424000,-0.00021119,-2.99e-05,2.9794e-05,5.9217e-05,6.4135e-05
2021-04-07,16:21:17.426000,-0.00015943,-2.9083000000000003e-05,1.2035e-05,4.111e-05,4.6036000000000004e-05
2021-04-07,16:21:17.428000,-7.4928e-05,-2.9569e-05,-1.7270999999999998e-05,7.8545e-06,1.9846e-05
2021-04-07,16:21:17.430000,-1.0117e-05,-3.0047e-05,-3.9491e-05,-1.3381e-05,-2.3738e-06
2021-04-07,16:21:17.432000,1.7491e-05,-3.1169e-05,-5.2008999999999996e-05,-2.0122e-05,-1.9563e-05
2021-04-07,16:21:17.434000,6.072100000000001e-06,-2.9341e-05,-4.4247e-05,-1.6094000000000002e-05,-1.3762e-05
2021-04-07,16:21:17.436000,-5.2617e-05,-2.4063000000000003e-05,-1.9284e-05,4.9974e-06,1.2742000000000001e-05
2021-04-07,16:21:17.438000,-0.00012841,-1.9756e-05,6.5284e-06,2.8639e-05,4.0283e-05
2021-04-07,16:21:17.440000,-0.00019351,-1.839e-05,2.7431e-05,4.8501e-05,6.3538e-05
2021-04-07,16:21:17.442000,-0.00024831,-2.1664e-05,4.214e-05,7.234e-05,7.7416e-05
2021-04-07,16:21:17.444000,-0.00024565,-2.6651999999999998e-05,4.2631000000000006e-05,7.0425e-05,7.4726e-05
2021-04-07,16:21:17.446000,-0.00017130000000000002,-2.1383000000000002e-05,2.4129000000000002e-05,4.1965e-05,5.181600000000001e-05
2021-04-07,16:21:17.448000,-0.00010311,-1.865e-05,1.3523e-06,2.0092e-05,2.3092e-05
2021-04-07,16:21:17.450000,-4.8181000000000005e-05,-2.6314000000000003e-05,-1.7964e-05,6.718099999999999e-07,3.3375e-06
2021-04-07,16:21:17.452000,-2.0387e-06,-2.6371e-05,-3.0661e-05,-9.3474e-06,-7.7038e-06
2021-04-07,16:21:17.454000,-2.5716999999999998e-05,-2.2501e-05,-2.3973000000000002e-05,3.1415e-06,4.3227e-07
2021-04-07,16:21:17.456000,-9.452399999999999e-05,-2.0454e-05,6.275100000000001e-07,1.9692e-05,2.4004000000000003e-05
2021-04-07,16:21:17.458000,-0.00015995,-1.7602000000000002e-05,2.8214e-05,3.8885e-05,4.5981000000000006e-05
2021-04-07,16:21:17.460000,-0.00023057,-1.7877000000000002e-05,5.1476000000000007e-05,6.6689e-05,6.9393e-05
2021-04-07,16:21:17.462000,-0.00027922,-2.1974e-05,6.7009e-05,8.2095e-05,8.392799999999999e-05
2021-04-07,16:21:17.464000,-0.00026714,-2.5713000000000003e-05,6.0868e-05,7.6507e-05,7.708300000000001e-05
2021-04-07,16:21:17.466000,-0.00020848,-2.3735999999999998e-05,4.1357e-05,5.6621000000000006e-05,5.746e-05
2021-04-07,16:21:17.468000,-0.00013319999999999999,-2.4179e-05,2.1291e-05,2.5238e-05,3.0875e-05
2021-04-07,16:21:17.470000,-6.403399999999999e-05,-2.4929e-05,-7.099e-06,4.3064e-06,1.0785e-05
2021-04-07,16:21:17.472000,-3.5135e-05,-1.7842e-05,-1.7711e-05,2.8744e-06,6.9305e-06
2021-04-07,16:21:17.474000,-5.723e-05,-1.8046e-05,-2.245e-06,7.0295e-06,1.5510999999999998e-05
2021-04-07,16:21:17.476000,-0.00011651,-2.1395e-05,1.4362e-05,2.6383e-05,3.4393e-05
2021-04-07,16:21:17.478000,-0.00019765,-1.6387e-05,4.1151000000000006e-05,5.7162e-05,5.9219e-05
2021-04-07,16:21:17.480000,-0.00026539,-1.4257000000000001e-05,7.0187e-05,7.85e-05,8.2966e-05
2021-04-07,16:21:17.482000,-0.00029874,-1.413e-05,8.0174e-05,9.2891e-05,9.3994e-05
2021-04-07,16:21:17.484000,-0.00029125,-1.1335e-05,7.608800000000001e-05,9.1801e-05,9.038299999999999e-05
2021-04-07,16:21:17.486000,-0.00023538,-1.1932e-05,5.7162e-05,6.7286e-05,7.3191e-05
2021-04-07,16:21:17.488000,-0.00015174,-1.3139e-05,3.0551999999999995e-05,3.8095e-05,4.3528999999999996e-05
2021-04-07,16:21:17.490000,-8.5432e-05,-1.142e-05,1.3073e-05,1.846e-05,2.1706e-05
2021-04-07,16:21:17.492000,-6.8859e-05,-9.646e-06,3.9119e-06,1.1649000000000001e-05,1.6079e-05
2021-04-07,16:21:17.494000,-9.0215e-05,-8.277e-06,7.5699e-06,2.0490999999999997e-05,2.3854000000000002e-05
2021-04-07,16:21:17.496000,-0.00014805,-9.8981e-06,3.4364e-05,4.2223999999999994e-05,4.5023e-05
2021-04-07,16:21:17.498000,-0.00023439,-1.0929000000000002e-05,6.5843e-05,6.5174e-05,6.9811e-05
2021-04-07,16:21:17.500000,-0.00030073,-9.126e-06,8.63e-05,8.9093e-05,9.4643e-05
2021-04-07,16:21:17.502000,-0.00034173,-1.0528e-05,9.871200000000001e-05,0.00010651,0.00011067
2021-04-07,16:21:17.504000,-0.00033510000000000007,-9.646799999999999e-06,9.3677e-05,9.7682e-05,0.00010425
2021-04-07,16:21:17.506000,-0.00026158,-8.3348e-06,7.4503e-05,7.6499e-05,8.3784e-05
2021-04-07,16:21:17.508000,-0.00019140000000000002,-1.2475999999999999e-05,5.1762e-05,5.3635e-05,5.9848e-05
2021-04-07,16:21:17.510000,-0.00013978,-1.6550999999999998e-05,2.8324000000000002e-05,3.0164e-05,3.7687e-05
2021-04-07,16:21:17.512000,-0.00010171,-1.7052000000000002e-05,1.9281e-05,2.4877e-05,2.9202e-05
2021-04-07,16:21:17.514000,-0.00012115,-9.8199e-06,2.6813000000000002e-05,3.4335e-05,3.6255e-05
2021-04-07,16:21:17.509000,5.1902e-05,-3.7093e-05,-1.9469e-05,5.7404999999999995e-06,-5.5358999999999996e-05
2021-04-07,16:21:17.511000,7.858399999999999e-05,-1.9542e-05,1.5436e-05,-1.5323e-06,-6.6824e-05
2021-04-07,16:21:17.513000,-6.144100000000001e-05,-3.4315e-05,3.1455e-05,4.4426000000000005e-05,-1.5592999999999998e-05
2021-04-07,16:21:17.515000,-5.3276e-05,-2.4551e-05,4.8342e-05,4.5613e-05,-1.2867e-05
2021-04-07,16:21:17.517000,-5.352e-05,-3.7161e-05,3.1391e-05,3.9786e-05,-1.5373e-05
2021-04-07,16:21:17.519000,1.3915999999999999e-05,-3.9696e-05,9.4112e-06,1.6448e-05,-3.8773e-05
2021-04-07,16:21:17.521000,9.889399999999999e-05,-3.5277e-05,-1.892e-05,-1.7328e-05,-7.208300000000001e-05
2021-04-07,16:21:17.523000,0.00015646,-3.8997e-05,-4.1108999999999996e-05,-3.4027e-05,-8.9156e-05
2021-04-07,16:21:17.525000,0.00019652,-3.4805e-05,-4.0611e-05,-3.7081e-05,-9.575799999999999e-05
2021-04-07,16:21:17.527000,0.00016249,-3.0688e-05,-3.6229e-05,-3.035e-05,-8.523e-05
2021-04-07,16:21:17.529000,0.00010633,-2.8389000000000002e-05,-1.8290999999999998e-05,-1.6391e-05,-6.7775e-05
2021-04-07,16:21:17.531000,2.5115999999999998e-05,-3.0061999999999998e-05,1.1045e-05,1.2243e-05,-4.2408000000000005e-05
2021-04-07,16:21:17.533000,-4.3828e-05,-3.2667e-05,3.024e-05,3.4611e-05,-1.6465999999999998e-05
2021-04-07,16:21:17.535000,-6.3599e-05,-3.2496e-05,3.6779e-05,4.1075e-05,-6.2384e-06
2021-04-07,16:21:17.537000,-5.4992e-05,-3.0788000000000004e-05,2.9145e-05,3.8397e-05,-1.7667000000000002e-05
2021-04-07,16:21:17.539000,1.141e-05,-3.1420999999999996e-05,4.4439e-06,1.5809e-05,-4.2903e-05
2021-04-07,16:21:17.541000,9.6915e-05,-3.8309e-05,-2.2868000000000002e-05,-1.283e-05,-6.4472e-05
2021-04-07,16:21:17.543000,0.00015654,-3.8615e-05,-4.1698e-05,-3.6037e-05,-8.580899999999999e-05
2021-04-07,16:21:17.545000,0.00018298,-3.6052e-05,-5.1152e-05,-4.349e-05,-9.7434e-05
2021-04-07,16:21:17.547000,0.00016011,-3.7462e-05,-4.2013e-05,-2.7547e-05,-8.5285e-05
2021-04-07,16:21:17.549000,9.8938e-05,-3.3557e-05,-2.0384e-05,-9.3423e-06,-6.0307e-05
2021-04-07,16:21:17.551000,2.0093e-05,-3.2899e-05,1.2657e-06,1.3957e-05,-3.4419000000000004e-05
2021-04-07,16:21:17.553000,-4.7643000000000004e-05,-3.4619e-05,2.5090999999999997e-05,4.0119e-05,-1.586e-05
2021-04-07,16:21:17.555000,-8.3328e-05,-3.1383e-05,3.6635e-05,4.7659e-05,-3.9893e-06
2021-04-07,16:21:17.557000,-6.0455e-05,-3.2440999999999997e-05,2.231e-05,3.8788e-05,-7.4746e-06
2021-04-07,16:21:17.559000,1.7536e-05,-3.2865e-05,-1.5955e-06,1.5868e-05,-3.3418000000000004e-05
2021-04-07,16:21:17.561000,8.732899999999999e-05,-2.9860999999999998e-05,-2.6283000000000002e-05,-9.472999999999999e-06,-6.0528e-05
2021-04-07,16:21:17.563000,0.00014428,-3.2026e-05,-5.0712e-05,-2.8321999999999998e-05,-8.0212e-05
2021-04-07,16:21:17.565000,0.00017908,-3.5651e-05,-5.8603999999999997e-05,-3.7987e-05,-8.8748e-05
2021-04-07,16:21:17.567000,0.00014254,-3.5351999999999996e-05,-4.7311e-05,-2.5781999999999998e-05,-7.4409e-05
2021-04-07,16:21:17.569000,7.4026e-05,-3.3406e-05,-2.814e-05,-8.7701e-06,-5.2683000000000004e-05
2021-04-07,16:21:17.571000,9.125e-06,-3.2935e-05,-5.2908e-06,1.0972000000000001e-05,-3.3801e-05
2021-04-07,16:21:17.573000,-6.1806e-05,-3.3397e-05,1.311e-05,4.111100000000001e-05,-1.1065e-05
2021-04-07,16:21:17.575000,-9.7104e-05,-3.5418e-05,1.7650999999999998e-05,4.9993999999999996e-05,1.766e-06
2021-04-07,16:21:17.577000,-6.443e-05,-3.5266e-05,7.1857000000000005e-06,3.7270999999999996e-05,-7.7386e-06
2021-04-07,16:21:17.579000,4.0451999999999997e-07,-3.1849e-05,-1.4947000000000001e-05,1.6047e-05,-3.3764000000000004e-05
2021-04-07,16:21:17.581000,6.8581e-05,-3.4153e-05,-4.1243000000000005e-05,-1.2746e-05,-6.1929e-05
2021-04-07,16:21:17.583000,0.00013763,-3.5478e-05,-6.0085e-05,-3.0246999999999997e-05,-7.8441e-05
2021-04-07,16:21:17.585000,0.00016668,-3.4694000000000004e-05,-6.3887e-05,-3.683e-05,-8.3539e-05
2021-04-07,16:21:17.587000,0.00013045,-3.7118e-05,-5.6751000000000006e-05,-3.0411e-05,-7.5359e-05
2021-04-07,16:21:17.589000,6.428e-05,-3.1774e-05,-3.9501999999999996e-05,-5.4213e-06,-5.2333e-05
2021-04-07,16:21:17.591000,-9.3494e-06,-2.8639e-05,-1.052e-05,1.9768e-05,-2.4463000000000003e-05
2021-04-07,16:21:17.593000,-7.4533e-05,-3.1422e-05,1.2672999999999999e-05,3.9639e-05,1.7292000000000002e-07
2021-04-07,16:21:17.595000,-0.00010099,-3.0030999999999998e-05,1.6039e-05,4.9515e-05,1.0191e-05
2021-04-07,16:21:17.597000,-7.7692e-05,-3.5543e-05,3.2941000000000004e-06,4.0819000000000003e-05,-3.1541000000000004e-06
2021-04-07,16:21:17.599000,-9.241e-06,-4.1057e-05,-2.0015e-05,1.7106e-05,-3.1075e-05
2021-04-07,16:21:17.601000,7.4997e-05,-4.1126000000000006e-05,-4.499e-05,-1.0753e-05,-5.6141000000000003e-05
2021-04-07,16:21:17.603000,0.00013094,-4.4325e-05,-6.3714e-05,-2.9491999999999998e-05,-7.2624e-05
2021-04-07,16:21:17.605000,0.00015199,-4.3e-05,-7.0848e-05,-3.749e-05,-7.9652e-05
2021-04-07,16:21:17.607000,0.00013015,-4.3827e-05,-6.2486e-05,-2.6584e-05,-6.7595e-05
2021-04-07,16:21:17.609000,5.3153000000000004e-05,-4.8437e-05,-3.7662e-05,3.1123000000000003e-06,-4.3005e-05
2021-04-07,16:21:17.611000,-2.849e-05,-4.2638e-05,-8.9441e-06,2.7493000000000003e-05,-1.9916e-05
2021-04-07,16:21:17.613000,-8.4276e-05,-3.9478000000000004e-05,3.0631e-06,4.340399999999999e-05,-2.1700999999999998e-06
2021-04-07,16:21:17.615000,-0.00011739,-4.4687e-05,6.0738e-06,5.495e-05,5.1432e-06
2021-04-07,16:21:17.617000,-8.798e-05,-4.3846999999999995e-05,-6.313899999999999e-07,4.4761e-05,-2.6268999999999998e-06
2021-04-07,16:21:17.619000,-1.1101e-05,-4.5697e-05,-2.9149e-05,1.3367000000000001e-05,-2.8295e-05
2021-04-07,16:21:17.621000,5.1478000000000004e-05,-5.408e-05,-5.5698e-05,-1.1332000000000001e-05,-5.5202e-05
2021-04-07,16:21:17.623000,0.00010396,-5.3992e-05,-7.3891e-05,-2.4546e-05,-7.0954e-05
2021-04-07,16:21:17.625000,0.00013912,-4.8688999999999994e-05,-8.3107e-05,-3.3410999999999996e-05,-8.0829e-05
2021-04-07,16:21:17.627000,0.00010905,-4.6756000000000004e-05,-6.6232e-05,-2.3646e-05,-6.8205e-05
2021-04-07,16:21:17.629000,3.2674e-05,-4.7907e-05,-4.1574e-05,1.6648e-06,-4.4586e-05
2021-04-07,16:21:17.631000,-3.7656e-05,-5.2002e-05,-2.124e-05,2.5993000000000003e-05,-2.6585e-05
2021-04-07,16:21:17.633000,-9.9047e-05,-5.0491e-05,-2.1837e-06,4.7055e-05,1.3787e-06
2021-04-07,16:21:17.635000,-0.00012249,-4.0968000000000005e-05,5.4177e-06,5.5053e-05,5.1171e-06
2021-04-07,16:21:17.637000,-7.4989e-05,-3.5282e-05,-4.7596000000000003e-07,4.2829e-05,-1.0722999999999999e-05
2021-04-07,16:21:17.639000,-6.3366e-06,-3.1449e-05,-2.2316999999999997e-05,2.0377e-05,-2.1291e-05
2021-04-07,16:21:17.641000,6.8376e-05,-2.4319000000000002e-05,-4.7408000000000004e-05,-1.9525999999999997e-06,-5.8338e-05
2021-04-07,16:21:17.643000,0.00015144,-1.7745e-05,-6.0929e-05,-1.771e-05,-6.4322e-05
2021-04-07,16:21:17.645000,0.00017579,-1.361e-05,-6.793399999999999e-05,-2.0673000000000003e-05,-4.1571000000000006e-05
2021-04-07,16:21:17.647000,0.00013539,-1.445e-05,-5.6303999999999995e-05,-4.8404e-06,-6.1401e-05
2021-04-07,16:21:17.649000,6.9955e-05,-9.367e-06,-2.5913e-05,2.4065e-05,-4.9653e-05
2021-04-07,16:21:17.651000,-6.4954e-06,1.3734e-06,1.2712e-06,5.1056999999999996e-05,-8.5624e-06
2021-04-07,16:21:17.653000,-6.0882e-05,5.5824e-06,1.9894e-05,7.4066e-05,2.7477999999999998e-06
2021-04-07,16:21:17.655000,-7.8255e-05,1.6013e-05,2.5370999999999998e-05,8.7866e-05,1.7382e-05
2021-04-07,16:21:17.657000,-5.1668e-05,2.1934e-05,1.1235e-05,7.6711e-05,8.1549e-06
2021-04-07,16:21:17.659000,2.1495e-05,1.0800000000000002e-05,-1.4635999999999998e-05,4.9133e-05,-2.7193000000000002e-05
2021-04-07,16:21:17.661000,9.98e-05,6.5709e-06,-3.9875e-05,2.3851999999999998e-05,-4.576e-05
2021-04-07,16:21:17.663000,0.00015759999999999998,1.3011e-05,-5.8367e-05,6.7351e-06,-6.245e-05
2021-04-07,16:21:17.665000,0.00018491,2.759e-05,-5.8509e-05,6.345e-06,-6.4567e-05
2021-04-07,16:21:17.667000,0.00016386,4.191e-05,-3.6565e-05,2.2834000000000002e-05,-4.1263e-05
2021-04-07,16:21:17.669000,0.00010506,3.923e-05,-1.2366e-05,4.7544e-05,-2.0472e-05
2021-04-07,16:21:17.671000,3.3323e-05,3.6544e-05,8.4829e-06,7.3458e-05,-1.3166999999999998e-06
2021-04-07,16:21:17.673000,-3.2655e-05,4.2016000000000006e-05,2.9837e-05,9.2841e-05,2.23e-05
2021-04-07,16:21:17.675000,-6.5649e-05,4.2646000000000005e-05,3.6785e-05,0.00010438,3.185e-05
2021-04-07,16:21:17.677000,-2.8395e-05,4.0863000000000005e-05,2.2994e-05,9.6867e-05,1.3547000000000001e-05
2021-04-07,16:21:17.679000,6.3529e-05,4.5922e-05,2.3479e-06,6.5187e-05,-1.4965e-05
2021-04-07,16:21:17.681000,0.00014138,5.4202e-05,-1.472e-05,2.8503e-05,-3.6998e-05
2021-04-07,16:21:17.683000,0.00019834,4.976100000000001e-05,-2.7118e-05,3.0732e-07,-6.091399999999999e-05
2021-04-07,16:21:17.685000,0.00023097,3.6612e-05,-3.1693e-05,-1.1523e-05,-6.8741e-05
2021-04-07,16:21:17.687000,0.00018369,2.8799e-05,-2.6469e-05,-8.8488e-06,-4.7317e-05
2021-04-07,16:21:17.689000,9.5299e-05,2.0299e-05,-1.6108e-05,-7.026000000000001e-07,-2.2397e-05
2021-04-07,16:21:17.691000,2.5658e-05,8.8496e-06,-2.3446e-06,1.0573e-05,3.4801e-06
2021-04-07,16:21:17.693000,-4.7693999999999994e-05,1.6927000000000001e-06,1.1414000000000001e-05,2.0235e-05,2.9551e-05
2021-04-07,16:21:17.695000,-9.025700000000001e-05,-5.5887e-06,1.085e-05,2.3046999999999998e-05,3.9195e-05
2021-04-07,16:21:17.697000,-5.7237e-05,-1.4614000000000001e-05,-7.4042999999999996e-06,1.2162e-05,2.9061e-05
2021-04-07,16:21:17.699000,3.3053e-06,-2.0731999999999997e-05,-3.4526999999999997e-05,-7.4363e-06,-4.037e-06
2021-04-07,16:21:17.701000,6.0687e-05,-3.2574000000000004e-05,-6.4759e-05,-2.5758000000000003e-05,-4.4546000000000003e-05
2021-04-07,16:21:17.703000,0.00011309,-4.6577e-05,-8.4298e-05,-4.0341e-05,-6.419e-05
2021-04-07,16:21:17.705000,0.00012314,-5.1104e-05,-8.6114e-05,-4.0331e-05,-6.4632e-05
2021-04-07,16:21:17.707000,7.497600000000001e-05,-5.3633e-05,-7.4373e-05,-2.7228e-05,-5.7738e-05
2021-04-07,16:21:17.709000,-3.747e-06,-5.7333e-05,-5.4196999999999996e-05,-6.8832000000000004e-06,-3.7469e-05
2021-04-07,16:21:17.711000,-8.0505e-05,-5.8967e-05,-3.3605e-05,2.0785e-05,-1.0309e-05
2021-04-07,16:21:17.713000,-0.00013334,-5.8039e-05,-1.4949e-05,4.4041e-05,6.5046e-06
2021-04-07,16:21:17.715000,-0.00015181,-6.179800000000001e-05,-9.9092e-06,5.3038e-05,1.3512e-05
2021-04-07,16:21:17.717000,-0.0001208,-6.8198e-05,-2.2934e-05,3.6707e-05,7.8723e-07
2021-04-07,16:21:17.719000,-4.5638e-05,-6.4855e-05,-4.6473e-05,2.0693000000000002e-06,-3.2576999999999997e-05
2021-04-07,16:21:17.721000,3.5515e-05,-6.687300000000001e-05,-7.649399999999999e-05,-2.3413e-05,-5.6403e-05
2021-04-07,16:21:17.723000,8.826799999999999e-05,-7.0648e-05,-9.413200000000001e-05,-3.4318e-05,-6.6248e-05
2021-04-07,16:21:17.725000,9.3782e-05,-6.483199999999999e-05,-9.8505e-05,-3.498e-05,-7.353e-05
2021-04-07,16:21:17.727000,5.4811999999999996e-05,-7.0913e-05,-8.910399999999999e-05,-2.3166999999999997e-05,-6.2791e-05
2021-04-07,16:21:17.729000,-1.3034000000000001e-05,-7.37e-05,-5.9692e-05,1.5940000000000001e-06,-3.2028e-05
2021-04-07,16:21:17.731000,-8.6007e-05,-6.3135e-05,-3.6263e-05,2.7331e-05,-7.6795e-06
2021-04-07,16:21:17.733000,-0.00014722,-6.769899999999999e-05,-1.8784000000000002e-05,4.3908e-05,6.778300000000001e-06
2021-04-07,16:21:17.735000,-0.00017930000000000002,-7.5855e-05,-9.3751e-06,5.2988e-05,1.6504e-05
2021-04-07,16:21:17.737000,-0.00013923,-7.308899999999999e-05,-2.7907e-05,4.046e-05,5.3162e-06
2021-04-07,16:21:17.739000,-5.1584e-05,-7.3583e-05,-5.2968000000000005e-05,9.4433e-06,-2.1541999999999998e-05
2021-04-07,16:21:17.741000,1.6557e-05,-7.5309e-05,-7.558699999999999e-05,-1.5802e-05,-4.4483e-05
2021-04-07,16:21:17.743000,6.82e-05,-7.5196e-05,-9.5948e-05,-3.366e-05,-6.54e-05
2021-04-07,16:21:17.745000,8.887700000000001e-05,-7.5495e-05,-9.779700000000001e-05,-3.6306999999999996e-05,-7.063e-05
2021-04-07,16:21:17.747000,4.3187e-05,-7.3527e-05,-8.403100000000001e-05,-1.788e-05,-4.9335e-05
2021-04-07,16:21:17.749000,-3.1468000000000004e-05,-7.203899999999999e-05,-6.2469e-05,3.0335000000000003e-06,-2.8589e-05
2021-04-07,16:21:17.751000,-9.712700000000001e-05,-6.9746e-05,-3.9723e-05,2.4826e-05,-9.4919e-06
2021-04-07,16:21:17.753000,-0.00015983,-7.1069e-05,-1.9997000000000002e-05,5.0472e-05,1.4102e-05
2021-04-07,16:21:17.755000,-0.00018544,-7.587800000000001e-05,-1.2652e-05,5.47e-05,1.8105e-05
2021-04-07,16:21:17.757000,-0.00013508,-7.2414e-05,-2.9891e-05,3.3806e-05,1.2671e-06
2021-04-07,16:21:17.759000,-5.4599e-05,-7.1387e-05,-5.6506000000000004e-05,7.024700000000001e-06,-2.4415999999999998e-05
2021-04-07,16:21:17.761000,1.8492000000000002e-05,-7.4131e-05,-7.951e-05,-2.0616e-05,-5.0459e-05
2021-04-07,16:21:17.763000,7.7178e-05,-7.0228e-05,-9.7687e-05,-3.3685e-05,-6.8302e-05
2021-04-07,16:21:17.765000,8.2784e-05,-6.8809e-05,-9.997e-05,-3.4251e-05,-7.0437e-05
2021-04-07,16:21:17.767000,3.7609e-05,-7.0118e-05,-8.1037e-05,-2.3282e-05,-5.2146000000000005e-05
2021-04-07,16:21:17.769000,-3.3164e-05,-7.1513e-05,-5.4243e-05,8.5782e-06,-2.7585e-05
2021-04-07,16:21:17.771000,-0.00011666,-7.8498e-05,-3.1699e-05,3.7791e-05,-1.4827e-05
2021-04-07,16:21:17.773000,-0.00018286,-0.00010328,2.6087e-07,8.547100000000001e-05,-2.6193e-05
2021-04-07,16:21:17.775000,-0.00021519,-0.00014022,3.3001e-05,0.00014364,-5.1838e-05
2021-04-07,16:21:17.777000,-0.00019506,-0.00016762,4.0948e-05,0.00016078,-9.7657e-05
2021-04-07,16:21:17.779000,-0.00013022,-0.00020928,3.5678e-05,0.0001663,-0.00017304
2021-04-07,16:21:17.781000,-6.4173e-05,-0.00026474,3.1863e-05,0.00017233,-0.00023043
2021-04-07,16:21:17.783000,-3.4755e-05,-0.00029948,4.4175e-05,0.0001971,-0.00027267
2021-04-07,16:21:17.785000,-4.4998999999999994e-05,-0.00030971,7.3157e-05,0.00024625,-0.00030393
2021-04-07,16:21:17.787000,-4.6597e-05,-0.00026173,0.00011874,0.00026827,-0.00028784
2021-04-07,16:21:17.789000,-5.9736000000000005e-05,-0.000169,0.00018602,0.00029719,-0.00025689
2021-04-07,16:21:17.791000,-0.00010369,-9.7741e-05,0.00020629,0.00034506,-0.00020669
2021-04-07,16:21:17.793000,-0.00013959,-3.5709e-05,0.00015878,0.00039139,-0.00012904
2021-04-07,16:21:17.795000,-0.00015928,5.2832e-05,8.9253e-05,0.00043078,-6.387600000000001e-05
2021-04-07,16:21:17.797000,-8.886e-05,0.00020415,-1.8532e-05,0.00042787,6.908999999999999e-06
2021-04-07,16:21:17.799000,6.571e-05,0.00040867,-0.00014163,0.00038713,8.703799999999999e-05
2021-04-07,16:21:17.801000,0.00022038,0.00060534,-0.00025297,0.00027103,0.00016775
2021-04-07,16:21:17.803000,0.00040922,0.00081779,-0.00034905,6.8483e-05,0.00026532
2021-04-07,16:21:17.805000,0.00059138,0.0010524,-0.00037057,-0.00017219999999999998,0.00037118
2021-04-07,16:21:17.807000,0.00069868,0.0012456,-0.00034818,-0.00041234,0.00046195
2021-04-07,16:21:17.809000,0.00078073,0.0013751,-0.00034693,-0.0006008999999999999,0.00052405
2021-04-07,16:21:17.811000,0.00087908,0.0014716,-0.00032204,-0.00077481,0.00057798
2021-04-07,16:21:17.813000,0.00097743,0.0015307,-0.00025167,-0.00092004,0.00060422
2021-04-07,16:21:17.815000,0.0010316,0.0014345,-0.00019103,-0.0010298,0.00055774
2021-04-07,16:21:17.817000,0.0010759,0.0012674000000000001,-0.00018665,-0.0011591,0.00049006
2021-04-07,16:21:17.819000,0.0011374,0.0011825,-0.00021311,-0.0012326,0.00043755
2021-04-07,16:21:17.821000,0.0011265000000000001,0.00096395,-0.00021821,-0.0012344,0.00037095
2021-04-07,16:21:17.823000,0.00097372,0.00057947,-0.0002478,-0.0011282,0.00032213
2021-04-07,16:21:17.825000,0.00062894,0.00025092,-0.00038928,-0.00089575,0.00033211
2021-04-07,16:21:17.827000,0.00019087,3.9497000000000005e-06,-0.00053875,-0.00068864,0.00036412
2021-04-07,16:21:17.829000,-0.00010423,-0.00013536,-0.00052301,-0.00051787,0.00035878
2021-04-07,16:21:17.831000,-0.00024639999999999997,-0.00018345,-0.0004141,-0.00037785,0.00030868
2021-04-07,16:21:17.833000,-0.0003047,-0.00018354,-0.00031268,-0.00030422,0.00025299
2021-04-07,16:21:17.835000,-0.00025810000000000004,-0.00011945,-0.00020786,-0.00024451,0.00020198
2021-04-07,16:21:17.837000,-0.00015603,-7.2662e-05,-0.00014811,-0.00020968,0.00013229
2021-04-07,16:21:17.839000,-4.7113999999999996e-05,-7.5744e-05,-0.00013212,-0.00019795,5.0078000000000004e-05
2021-04-07,16:21:17.841000,5.5753999999999995e-05,-7.2758e-05,-0.00011843,-0.0001908,-7.5325e-06
2021-04-07,16:21:17.843000,0.00013124,-3.8632e-05,-0.00010141,-0.00018311,-2.8936e-05
2021-04-07,16:21:17.845000,0.00017673,7.375599999999999e-06,-5.8546000000000005e-05,-0.00014473,-3.4523e-05
2021-04-07,16:21:17.847000,0.00016864,3.7023e-05,-3.895899999999999e-06,-9.876600000000001e-05,-3.034e-05
2021-04-07,16:21:17.849000,0.00010148,5.1182e-05,4.3412e-05,-5.725e-05,-1.4051e-05
2021-04-07,16:21:17.851000,3.1325e-05,4.7105e-05,7.3546e-05,-1.8075e-05,4.6289e-06
2021-04-07,16:21:17.853000,-2.691e-05,3.3778e-05,7.7388e-05,5.0506e-06,1.8031e-05
2021-04-07,16:21:17.855000,-6.0626000000000005e-05,2.3661999999999998e-05,7.6865e-05,1.7056e-05,1.9457e-05
2021-04-07,16:21:17.857000,-1.9582e-05,1.2318e-05,6.2975e-05,4.922e-06,-2.2562e-06
2021-04-07,16:21:17.859000,6.4441e-05,1.7182e-06,3.1678000000000004e-05,-2.1839000000000002e-05,-3.8781e-05
2021-04-07,16:21:17.861000,0.00013073,-5.845499999999999e-06,1.1712e-05,-3.8555e-05,-6.415199999999999e-05
2021-04-07,16:21:17.863000,0.00016544,-6.823099999999999e-06,1.829e-06,-4.8602e-05,-7.6357e-05
2021-04-07,16:21:17.865000,0.00016319,-7.400599999999999e-06,6.547e-06,-3.9965e-05,-7.9151e-05
2021-04-07,16:21:17.867000,0.00010885,-1.2367999999999999e-05,3.009e-05,-1.1872000000000001e-05,-6.1896e-05
2021-04-07,16:21:17.869000,2.175e-05,-1.3146e-05,5.1414e-05,1.287e-05,-3.6157e-05
2021-04-07,16:21:17.871000,-4.433e-05,-1.3355999999999999e-05,7.516e-05,3.3724e-05,-1.7309e-05
2021-04-07,16:21:17.873000,-9.682700000000001e-05,-1.6816e-05,9.9597e-05,5.392e-05,-3.475e-06
2021-04-07,16:21:17.875000,-0.00010784,-1.8543e-05,9.7628e-05,5.8107e-05,-5.7303e-06
2021-04-07,16:21:17.877000,-3.9734e-05,-1.9184e-05,7.5326e-05,4.3173e-05,-2.8216999999999998e-05
2021-04-07,16:21:17.879000,3.4136e-05,-1.8727000000000002e-05,5.1297e-05,2.0878000000000002e-05,-5.572e-05
2021-04-07,16:21:17.881000,0.00010325,-1.7785e-05,2.6356e-05,-7.4657e-06,-8.204200000000001e-05
2021-04-07,16:21:17.883000,0.00016309,-2.0885e-05,1.1599e-05,-2.4987e-05,-9.6375e-05
2021-04-07,16:21:17.885000,0.00015356,-2.3714e-05,1.7899e-05,-1.6752e-05,-9.1954e-05
2021-04-07,16:21:17.887000,0.00010093,-1.9787e-05,3.5338e-05,-1.7335e-06,-7.8487e-05
2021-04-07,16:21:17.889000,3.1281999999999996e-05,-1.4251e-05,6.1084e-05,2.27e-05,-5.2934e-05
2021-04-07,16:21:17.891000,-4.8442e-05,-1.3031e-05,8.8816e-05,5.5655e-05,-2.4271999999999997e-05
2021-04-07,16:21:17.893000,-0.00010302,-1.3250999999999999e-05,9.8647e-05,6.9607e-05,-1.3324000000000002e-05
2021-04-07,16:21:17.895000,-0.00010444,-1.3642e-05,9.6537e-05,6.702e-05,-1.6012000000000002e-05
2021-04-07,16:21:17.897000,-4.8286000000000005e-05,-1.5564000000000002e-05,7.9774e-05,4.7464e-05,-3.5496e-05
2021-04-07,16:21:17.899000,3.8729e-05,-1.461e-05,4.5329e-05,1.5594e-05,-6.705800000000001e-05
2021-04-07,16:21:17.901000,0.00012559,-9.450800000000001e-06,2.6424e-05,-4.6187e-06,-8.672700000000001e-05
2021-04-07,16:21:17.903000,0.00016835,-3.9106e-06,2.1539e-05,-1.4728e-05,-9.595e-05
2021-04-07,16:21:17.905000,0.00015874,-4.919600000000001e-07,1.8104e-05,-8.2709e-06,-9.111299999999999e-05
2021-04-07,16:21:17.907000,0.00011703,1.5233e-06,3.2442e-05,1.2597e-05,-7.2432e-05
2021-04-07,16:21:17.909000,3.9074e-05,4.849e-06,6.247e-05,3.0595e-05,-5.4665e-05
2021-04-07,16:21:17.911000,-2.792e-05,6.8757e-06,9.096399999999999e-05,5.274e-05,-2.9837e-05
2021-04-07,16:21:17.913000,-6.3199e-05,7.440700000000001e-06,0.000106,7.3779e-05,-9.0578e-06
2021-04-07,16:21:17.915000,-7.8939e-05,7.3521e-06,0.00010754,7.7432e-05,-1.3675e-05
2021-04-07,16:21:17.917000,-2.8173000000000003e-05,2.987e-06,9.0025e-05,5.5886999999999995e-05,-3.7665e-05
2021-04-07,16:21:17.919000,6.5187e-05,4.3181999999999996e-07,6.174e-05,2.2946e-05,-6.5037e-05
2021-04-07,16:21:17.921000,0.00013812,4.5208e-06,4.5903000000000004e-05,-1.6696e-06,-8.5823e-05
2021-04-07,16:21:17.923000,0.00018363,6.6751e-06,3.2559e-05,-1.9851e-05,-0.00010236
2021-04-07,16:21:17.925000,0.00018168,4.6598e-06,3.121e-05,-1.646e-05,-9.9232e-05
2021-04-07,16:21:17.927000,0.00012536,6.5973e-06,5.4946000000000006e-05,6.4863e-06,-7.5009e-05
2021-04-07,16:21:17.929000,5.0048e-05,9.111499999999999e-06,7.5673e-05,2.6277e-05,-5.6032e-05
2021-04-07,16:21:17.931000,-1.645e-05,7.5847e-06,9.7018e-05,4.976399999999999e-05,-3.4853e-05
2021-04-07,16:21:17.933000,-6.992399999999999e-05,1.1072e-05,0.00012375,6.548800000000001e-05,-1.4782999999999999e-05
2021-04-07,16:21:17.935000,-7.2573e-05,1.6702e-05,0.00012608,5.9916e-05,-1.9685e-05
2021-04-07,16:21:17.937000,1.0028e-06,1.6765e-05,0.00010309999999999999,4.5165e-05,-3.9154e-05
2021-04-07,16:21:17.939000,7.9801e-05,1.6364e-05,7.8325e-05,1.9871e-05,-6.4639e-05
2021-04-07,16:21:17.941000,0.00013867,1.6485e-05,6.0228e-05,-1.1400000000000001e-05,-9.3145e-05
2021-04-07,16:21:17.943000,0.00019248,1.5358e-05,4.9318000000000005e-05,-2.7268e-05,-0.00010466
2021-04-07,16:21:17.945000,0.00018726,1.6176e-05,5.449e-05,-2.0966999999999998e-05,-9.729e-05
2021-04-07,16:21:17.947000,0.00012825,1.9594000000000002e-05,7.570399999999999e-05,-4.3575e-06,-8.198799999999999e-05
2021-04-07,16:21:17.949000,5.934100000000001e-05,2.0425e-05,0.00010361,1.8421e-05,-5.6198e-05
2021-04-07,16:21:17.951000,-1.0875999999999999e-05,2.2326999999999998e-05,0.00012992,4.4399e-05,-2.9415999999999998e-05
2021-04-07,16:21:17.953000,-4.3441999999999995e-05,2.7794000000000002e-05,0.00014317,5.6715e-05,-1.6837e-05
2021-04-07,16:21:17.955000,-2.5226999999999998e-05,2.783e-05,0.00014327,5.326e-05,-1.8599e-05
2021-04-07,16:21:17.957000,2.2766e-05,2.9466e-05,0.00012592,3.5024e-05,-3.9661e-05
2021-04-07,16:21:17.959000,0.00010412,3.4201999999999995e-05,9.4151e-05,3.7941000000000002e-06,-7.052600000000001e-05
2021-04-07,16:21:17.961000,0.00019099999999999998,3.5022e-05,7.4488e-05,-1.8993e-05,-9.0879e-05
2021-04-07,16:21:17.963000,0.00023050000000000002,3.6314e-05,6.847e-05,-2.9902e-05,-0.00010302
2021-04-07,16:21:17.965000,0.00022031,3.4671e-05,7.2802e-05,-3.0181999999999997e-05,-0.00010269
2021-04-07,16:21:17.967000,0.00017414,3.7536e-05,9.3721e-05,-1.2291e-05,-8.2158e-05
2021-04-07,16:21:17.969000,9.6731e-05,4.5688999999999996e-05,0.00011641,1.2730999999999999e-05,-5.6131e-05
2021-04-07,16:21:17.971000,2.8522e-05,4.5071e-05,0.00013741,3.8139e-05,-3.4875999999999996e-05
2021-04-07,16:21:17.973000,-5.620599999999999e-06,4.3687e-05,0.00015884,5.4481e-05,-2.0405999999999997e-05
2021-04-07,16:21:17.975000,-3.487e-06,4.6256000000000006e-05,0.00015876,4.7247e-05,-2.7669000000000002e-05
