ecg1,ecg2,ecg3,ecg4,ecg5,tstamp
-0.00010093,-0.00010453,7.5395e-05,0.00017905,-4.5216e-05,2021-04-07 16:20:12.136000
-2.8889e-06,-0.00016026,0.00010374,0.00022769,-0.00014442,2021-04-07 16:20:12.138000
-3.5817e-05,-0.00019388,9.3227e-05,0.00023524,-0.00015242,2021-04-07 16:20:12.140000
9.778e-05,-0.00025812,9.148e-05,0.00023733,-0.00024751,2021-04-07 16:20:12.142000
0.00014716,-0.00030151,8.305e-05,0.00024543,-0.00031242,2021-04-07 16:20:12.144000
0.00016128,-0.00032668,9.5348e-05,0.00029136,-0.00034991,2021-04-07 16:20:12.146000
0.00015421,-0.00030223,0.00013532,0.00032705,-0.00035806,2021-04-07 16:20:12.148000
0.00013385,-0.00023459,0.00018531,0.00034076,-0.00032301,2021-04-07 16:20:12.150000
0.00011748,-0.00016146,0.00022962,0.00039354,-0.00027934,2021-04-07 16:20:12.152000
4.3098e-05,-8.6965e-05,0.00022983,0.00043258,-0.00021656,2021-04-07 16:20:12.154000
1.0002e-05,6.3232e-06,0.00017522,0.00047344,-0.00014333,2021-04-07 16:20:12.156000
3.3224e-05,0.00012403,6.5838e-05,0.00051275,-6.2756e-05,2021-04-07 16:20:12.158000
0.00013792,0.00030761,-7.1435e-05,0.000456,2.3193e-05,2021-04-07 16:20:12.160000
0.00033112,0.00055423,-0.00018911,0.00036717,0.00010294,2021-04-07 16:20:12.162000
0.00050479,0.0007245,-0.00028457,0.00018696,0.00018283,2021-04-07 16:20:12.164000
0.00070474,0.00093309,-0.00032845,-0.00011616,0.00027394,2021-04-07 16:20:12.166000
0.00088751,0.0012328,-0.0003088,-0.00033144,0.00037079,2021-04-07 16:20:12.168000
0.00096465,0.0013869,-0.00028736,-0.00051453,0.00044846,2021-04-07 16:20:12.170000
0.0010376,0.0014781,-0.00026464,-0.00073564,0.00049981,2021-04-07 16:20:12.172000
0.0011158,0.0015713,-0.00020054,-0.00086843,0.00053059,2021-04-07 16:20:12.174000
0.001167,0.0015368,-0.00011056,-0.0009563,0.00051962,2021-04-07 16:20:12.176000
0.0012045,0.0014111,-7.581e-05,-0.0010636,0.00045817,2021-04-07 16:20:12.178000
0.0012483,0.001272,-0.00012078,-0.0011709,0.00039169,2021-04-07 16:20:12.180000
0.0013086,0.0011141,-0.00014542,-0.0012106,0.00033115,2021-04-07 16:20:12.182000
0.0012437,0.00079665,-0.00016154,-0.0011404,0.00026045,2021-04-07 16:20:12.184000
0.00097998,0.00038044,-0.00027673,-0.0010079,0.00023419,2021-04-07 16:20:12.186000
0.00058242,8.2611e-05,-0.00044905,-0.00079968,0.0002724,2021-04-07 16:20:12.188000
0.00017907,-0.00011573,-0.00052484,-0.00056572,0.00030029,2021-04-07 16:20:12.190000
-4.4052e-05,-0.0002174,-0.00044559,-0.00041014,0.00027455,2021-04-07 16:20:12.192000
-0.00013432,-0.00022627,-0.00031881,-0.00030994,0.00022961,2021-04-07 16:20:12.194000
-0.00017449,-0.00020137,-0.00021271,-0.00023518,0.00018546,2021-04-07 16:20:12.196000
-9.2277e-05,-0.00013815,-0.0001289,-0.0001902,0.00011988,2021-04-07 16:20:12.198000
4.0483e-05,-9.6012e-05,-9.6641e-05,-0.00016938,4.7921e-05,2021-04-07 16:20:12.200000
0.00014637,-9.4721e-05,-9.0449e-05,-0.00016592,-1.5905e-05,2021-04-07 16:20:12.202000
0.00026163,-8.2981e-05,-8.3194e-05,-0.00016907,-7.4411e-05,2021-04-07 16:20:12.204000
0.00034166,-4.6559e-05,-6.3329e-05,-0.00015035,-0.00010027,2021-04-07 16:20:12.206000
0.00034243,-8.6843e-07,-1.2302e-05,-0.00010202,-9.6298e-05,2021-04-07 16:20:12.208000
0.00031039,2.8447e-05,4.6595e-05,-5.191e-05,-8.0812e-05,2021-04-07 16:20:12.210000
0.00024648,3.8466e-05,9.3748e-05,-8.9194e-07,-5.7375e-05,2021-04-07 16:20:12.212000
0.00014541,3.0152e-05,0.00012302,3.5089e-05,-3.6735e-05,2021-04-07 16:20:12.214000
8.3992e-05,1.4236e-05,0.00013442,4.6008e-05,-2.2232e-05,2021-04-07 16:20:12.216000
9.3598e-05,6.5937e-06,0.00012424,4.9788e-05,-2.8245e-05,2021-04-07 16:20:12.218000
0.00015819,-1.0841e-06,9.4597e-05,3.1988e-05,-6.0718e-05,2021-04-07 16:20:12.220000
0.00025881,-8.9351e-06,6.6626e-05,7.7331e-07,-9.7251e-05,2021-04-07 16:20:12.222000
0.00033388,-1.077e-05,4.0399e-05,-2.1082e-05,-0.0001265,2021-04-07 16:20:12.224000
0.00035084,-1.2975e-05,3.2077e-05,-2.8077e-05,-0.00014193,2021-04-07 16:20:12.226000
0.00031927,-1.7651e-05,4.8714e-05,-1.4717e-05,-0.00013156,2021-04-07 16:20:12.228000
0.00024436,-2.086e-05,6.72e-05,1.2608e-05,-0.00010492,2021-04-07 16:20:12.230000
0.00014416,-2.3594e-05,9.7303e-05,4.5739e-05,-8.035e-05,2021-04-07 16:20:12.232000
5.7201e-05,-2.135e-05,0.00013398,7.7727e-05,-5.3116e-05,2021-04-07 16:20:12.234000
1.4461e-05,-1.6478e-05,0.00015393,0.00010093,-3.0905e-05,2021-04-07 16:20:12.236000
2.5677e-05,-2.1995e-05,0.00014578,9.6096e-05,-4.4392e-05,2021-04-07 16:20:12.238000
0.00010491,-2.5525e-05,0.0001139,6.4487e-05,-8.1947e-05,2021-04-07 16:20:12.240000
0.00021735,-2.0239e-05,8.9964e-05,3.3837e-05,-0.00011078,2021-04-07 16:20:12.242000
0.00029348,-2.2265e-05,6.8041e-05,5.1731e-06,-0.00013534,2021-04-07 16:20:12.244000
0.00033045,-2.5159e-05,4.4729e-05,-1.0083e-05,-0.00015402,2021-04-07 16:20:12.246000
0.00031099,-2.2736e-05,5.2841e-05,5.6112e-06,-0.00014492,2021-04-07 16:20:12.248000
0.00022172,-2.388e-05,7.7856e-05,3.4043e-05,-0.00011696,2021-04-07 16:20:12.250000
0.00013567,-2.601e-05,0.00010381,6.2074e-05,-8.8673e-05,2021-04-07 16:20:12.252000
6.8887e-05,-2.4706e-05,0.0001374,9.1473e-05,-5.8959e-05,2021-04-07 16:20:12.254000
1.325e-05,-2.057e-05,0.00015434,0.00010595,-4.2317e-05,2021-04-07 16:20:12.256000
3.331e-05,-2.0362e-05,0.00014319,9.1964e-05,-5.3698e-05,2021-04-07 16:20:12.258000
0.0001223,-2.5252e-05,0.0001204,6.8904e-05,-8.1581e-05,2021-04-07 16:20:12.260000
0.00021553,-2.6667e-05,8.6713e-05,3.9634e-05,-0.00011622,2021-04-07 16:20:12.262000
0.00029854,-2.769e-05,5.5337e-05,6.2464e-06,-0.00014542,2021-04-07 16:20:12.264000
0.00033449,-2.8115e-05,4.8093e-05,-1.4998e-06,-0.00015283,2021-04-07 16:20:12.266000
0.00029349,-2.227e-05,5.7955e-05,1.0393e-05,-0.00014023,2021-04-07 16:20:12.268000
0.00022626,-1.9642e-05,8.7364e-05,3.5476e-05,-0.00011602,2021-04-07 16:20:12.270000
0.00014641,-2.0717e-05,0.00012585,7.2731e-05,-8.5389e-05,2021-04-07 16:20:12.272000
5.1109e-05,-1.605e-05,0.00014842,9.4984e-05,-6.0669e-05,2021-04-07 16:20:12.274000
5.5105e-06,-1.4252e-05,0.00016132,0.00010405,-4.9666e-05,2021-04-07 16:20:12.276000
3.2598e-05,-1.904e-05,0.00015552,9.8847e-05,-5.1234e-05,2021-04-07 16:20:12.278000
0.00011639,-2.0942e-05,0.00012611,6.7197e-05,-7.8924e-05,2021-04-07 16:20:12.280000
0.000228,-1.6934e-05,9.3232e-05,3.1147e-05,-0.00012136,2021-04-07 16:20:12.282000
0.00030799,-1.1388e-05,6.8362e-05,6.326e-06,-0.00014416,2021-04-07 16:20:12.284000
0.00033899,-1.3037e-05,6.2918e-05,-5.2543e-06,-0.00015208,2021-04-07 16:20:12.286000
0.00031283,-1.2778e-05,7.5427e-05,7.7417e-06,-0.00014236,2021-04-07 16:20:12.288000
0.00023012,-4.8549e-06,0.00010381,3.9344e-05,-0.00011234,2021-04-07 16:20:12.290000
0.00013564,-3.9369e-06,0.00014083,6.4837e-05,-8.6924e-05,2021-04-07 16:20:12.292000
5.4487e-05,-4.7514e-06,0.00017015,8.6634e-05,-5.9998e-05,2021-04-07 16:20:12.294000
6.7958e-06,-2.175e-06,0.00019141,0.00010929,-3.8769e-05,2021-04-07 16:20:12.296000
3.2978e-05,-1.3754e-06,0.00018202,0.00010183,-5.125e-05,2021-04-07 16:20:12.298000
0.0001304,2.5699e-06,0.00014498,6.6632e-05,-8.2216e-05,2021-04-07 16:20:12.300000
0.00023699,7.7306e-06,0.00012358,3.5086e-05,-0.0001131,2021-04-07 16:20:12.302000
0.00032107,1.0928e-05,0.00010455,9.0859e-06,-0.00014164,2021-04-07 16:20:12.304000
0.00037032,1.1849e-05,8.5446e-05,-2.9796e-06,-0.00015533,2021-04-07 16:20:12.306000
0.00033778,1.1415e-05,0.00010395,1.1158e-05,-0.00014192,2021-04-07 16:20:12.308000
0.00024506,1.5908e-05,0.00013831,3.8677e-05,-0.00011152,2021-04-07 16:20:12.310000
0.00015803,2.1658e-05,0.00016361,6.7074e-05,-8.3201e-05,2021-04-07 16:20:12.312000
8.1328e-05,2.4507e-05,0.00019535,9.6997e-05,-5.4088e-05,2021-04-07 16:20:12.314000
3.6951e-05,2.9479e-05,0.00021151,0.00011274,-3.8002e-05,2021-04-07 16:20:12.316000
7.7642e-05,3.2542e-05,0.00019323,9.2722e-05,-5.6363e-05,2021-04-07 16:20:12.318000
0.00017245,3.2899e-05,0.00017053,6.1661e-05,-8.064e-05,2021-04-07 16:20:12.320000
0.00026639,3.6345e-05,0.00014681,3.4504e-05,-0.00010504,2021-04-07 16:20:12.322000
0.00036113,3.6678e-05,0.00011637,-1.9568e-06,-0.0001445,2021-04-07 16:20:12.324000
0.00039927,3.6229e-05,0.00010711,-1.7694e-05,-0.00015679,2021-04-07 16:20:12.326000
0.00034388,3.9898e-05,0.00012744,2.6692e-06,-0.00013144,2021-04-07 16:20:12.328000
0.000274,4.0737e-05,0.00016241,3.2774e-05,-0.00010566,2021-04-07 16:20:12.330000
0.00019745,4.2776e-05,0.00019974,6.1776e-05,-7.6482e-05,2021-04-07 16:20:12.332000
0.00010546,4.8858e-05,0.00022799,8.5783e-05,-4.5885e-05,2021-04-07 16:20:12.334000
6.7922e-05,5.2403e-05,0.00023741,9.9244e-05,-3.6144e-05,2021-04-07 16:20:12.336000
0.00010267,5.2162e-05,0.00022737,8.9898e-05,-4.7965e-05,2021-04-07 16:20:12.338000
0.00019374,5.0521e-05,0.00020535,5.4047e-05,-7.8297e-05,2021-04-07 16:20:12.340000
0.00030536,4.9589e-05,0.00017555,1.7715e-05,-0.00011248,2021-04-07 16:20:12.342000
0.00038174,4.9892e-05,0.00015006,-5.8411e-06,-0.00013555,2021-04-07 16:20:12.344000
0.00040699,4.9246e-05,0.00014239,-1.7938e-05,-0.0001463,2021-04-07 16:20:12.346000
0.00037527,4.8567e-05,0.00015559,-7.5797e-06,-0.00012983,2021-04-07 16:20:12.348000
0.00029971,5.5796e-05,0.00018752,2.128e-05,-9.7965e-05,2021-04-07 16:20:12.350000
0.00020824,6.0435e-05,0.00022311,4.7049e-05,-7.9398e-05,2021-04-07 16:20:12.352000
0.00013093,5.378e-05,0.00024888,6.574e-05,-5.8652e-05,2021-04-07 16:20:12.354000
0.00010292,5.6139e-05,0.00026099,7.9091e-05,-3.7123e-05,2021-04-07 16:20:12.356000
0.00013225,6.3513e-05,0.00025203,6.5191e-05,-4.8892e-05,2021-04-07 16:20:12.358000
0.00022322,5.9551e-05,0.00022278,2.4491e-05,-8.7115e-05,2021-04-07 16:20:12.360000
0.0003373,5.4987e-05,0.00019205,-1.086e-05,-0.0001216,2021-04-07 16:20:12.362000
0.0004162,5.6142e-05,0.00016994,-3.7222e-05,-0.00014503,2021-04-07 16:20:12.364000
0.00044698,5.6434e-05,0.0001592,-5.0021e-05,-0.00015533,2021-04-07 16:20:12.366000
0.00040467,5.7146e-05,0.00017845,-3.3658e-05,-0.00014119,2021-04-07 16:20:12.368000
0.00031748,6.1693e-05,0.00021682,-7.5867e-06,-0.00010968,2021-04-07 16:20:12.370000
0.00024314,6.3011e-05,0.00024587,1.5464e-05,-7.7802e-05,2021-04-07 16:20:12.372000
0.00016817,6.4124e-05,0.00027421,4.1238e-05,-4.992e-05,2021-04-07 16:20:12.374000
0.00012533,6.631e-05,0.00029028,5.0364e-05,-4.0128e-05,2021-04-07 16:20:12.376000
0.00017505,6.3465e-05,0.00027449,3.1432e-05,-5.6382e-05,2021-04-07 16:20:12.378000
0.00027867,6.5239e-05,0.00025302,2.2278e-06,-8.849e-05,2021-04-07 16:20:12.380000
0.00037861,6.8004e-05,0.00022949,-3.0341e-05,-0.00012482,2021-04-07 16:20:12.382000
0.00046394,6.6561e-05,0.00020237,-6.1389e-05,-0.00014747,2021-04-07 16:20:12.384000
0.00049214,6.563e-05,0.00019942,-7.5142e-05,-0.00015228,2021-04-07 16:20:12.386000
0.00044016,6.7333e-05,0.00021632,-6.5902e-05,-0.00013966,2021-04-07 16:20:12.388000
0.00037257,7.7557e-05,0.00024603,-3.465e-05,-0.00010602,2021-04-07 16:20:12.390000
0.00030027,7.9382e-05,0.00028148,-6.0122e-07,-7.3963e-05,2021-04-07 16:20:12.392000
0.00021451,7.1851e-05,0.00030519,1.782e-05,-5.2061e-05,2021-04-07 16:20:12.394000
0.00018613,7.3887e-05,0.00031869,2.4603e-05,-3.7513e-05,2021-04-07 16:20:12.396000
0.00023093,7.2629e-05,0.00030459,7.7501e-06,-5.4884e-05,2021-04-07 16:20:12.398000
0.00031995,6.7287e-05,0.00026977,-3.1131e-05,-9.0629e-05,2021-04-07 16:20:12.400000
0.00043167,6.751e-05,0.00024493,-6.4357e-05,-0.00011498,2021-04-07 16:20:12.402000
0.00050404,6.61e-05,0.00022528,-8.5175e-05,-0.00013763,2021-04-07 16:20:12.404000
0.00051876,6.2242e-05,0.00021654,-9.2938e-05,-0.00014903,2021-04-07 16:20:12.406000
0.0004912,6.0381e-05,0.00023424,-8.3038e-05,-0.00013025,2021-04-07 16:20:12.408000
0.00040587,6.2336e-05,0.00027058,-5.702e-05,-9.2607e-05,2021-04-07 16:20:12.410000
0.00030517,6.4417e-05,0.00029841,-2.8667e-05,-5.8673e-05,2021-04-07 16:20:12.412000
0.00023784,6.3785e-05,0.00031918,-8.8618e-06,-3.487e-05,2021-04-07 16:20:12.414000
0.00020129,6.1296e-05,0.00033862,1.6952e-06,-1.7231e-05,2021-04-07 16:20:12.416000
0.00024448,5.924e-05,0.00032024,-1.4859e-05,-2.7975e-05,2021-04-07 16:20:12.418000
0.00035701,5.7769e-05,0.00028139,-5.2901e-05,-6.7235e-05,2021-04-07 16:20:12.420000
0.00044343,5.3253e-05,0.000253,-8.3905e-05,-9.5478e-05,2021-04-07 16:20:12.422000
0.00050945,5.0859e-05,0.00022487,-0.00011041,-0.00011169,2021-04-07 16:20:12.424000
0.00054484,5.2236e-05,0.00021855,-0.000121,-0.00012322,2021-04-07 16:20:12.426000
0.00048792,4.9775e-05,0.00023715,-9.9807e-05,-0.00010312,2021-04-07 16:20:12.428000
0.00038865,4.5203e-05,0.00026238,-7.2789e-05,-6.1971e-05,2021-04-07 16:20:12.430000
0.00030465,4.5428e-05,0.00029167,-4.8279e-05,-3.3336e-05,2021-04-07 16:20:12.432000
0.00023102,4.6004e-05,0.00031223,-1.9558e-05,-6.8958e-06,2021-04-07 16:20:12.434000
0.00019411,3.9719e-05,0.00031582,-1.0902e-05,1.1329e-05,2021-04-07 16:20:12.436000
0.00023863,3.3852e-05,0.00029682,-2.9613e-05,-2.5864e-06,2021-04-07 16:20:12.438000
0.00033347,3.1032e-05,0.00026157,-5.8369e-05,-3.2697e-05,2021-04-07 16:20:12.440000
0.00042031,2.704e-05,0.00022745,-9.1015e-05,-6.3294e-05,2021-04-07 16:20:12.442000
0.00049825,2.5008e-05,0.00019975,-0.00011444,-8.208e-05,2021-04-07 16:20:12.444000
0.00051088,2.1162e-05,0.00018622,-0.00011438,-7.6641e-05,2021-04-07 16:20:12.446000
0.00042823,1.4908e-05,0.00019259,-9.7452e-05,-5.8825e-05,2021-04-07 16:20:12.448000
0.00034182,1.3752e-05,0.00021482,-7.074e-05,-3.1645e-05,2021-04-07 16:20:12.450000
0.00025363,1.3626e-05,0.0002376,-3.533e-05,6.9658e-06,2021-04-07 16:20:12.452000
0.00014908,1.0659e-05,0.00025095,-4.7712e-06,3.6875e-05,2021-04-07 16:20:12.454000
0.00010419,7.1274e-06,0.00025482,7.2443e-06,4.4145e-05,2021-04-07 16:20:12.456000
0.0001382,6.0002e-07,0.00023073,-3.0151e-06,3.403e-05,2021-04-07 16:20:12.458000
0.00021818,-3.8037e-06,0.00018304,-3.3545e-05,6.0041e-06,2021-04-07 16:20:12.460000
0.00030297,-3.3281e-06,0.00014007,-6.206e-05,-3.1476e-05,2021-04-07 16:20:12.462000
0.00035923,-5.732e-06,0.00010767,-7.5405e-05,-5.3257e-05,2021-04-07 16:20:12.464000
0.00036096,-5.9571e-06,9.4155e-05,-7.6517e-05,-5.4857e-05,2021-04-07 16:20:12.466000
0.00029123,-5.1307e-06,0.00010176,-4.962e-05,-3.7462e-05,2021-04-07 16:20:12.468000
0.00018155,-8.2652e-06,0.00012076,-7.576e-06,-3.1446e-06,2021-04-07 16:20:12.470000
6.5812e-05,-7.6415e-06,0.00014244,2.0752e-05,2.6293e-05,2021-04-07 16:20:12.472000
-2.863e-05,-7.037e-06,0.00015188,4.7034e-05,4.8917e-05,2021-04-07 16:20:12.474000
-6.8053e-05,-5.9423e-06,0.00014896,6.5926e-05,6.5238e-05,2021-04-07 16:20:12.476000
-3.0908e-05,-3.4415e-06,0.00012657,5.615e-05,4.9189e-05,2021-04-07 16:20:12.478000
6.6835e-05,-3.3285e-06,8.2089e-05,2.5814e-05,9.7812e-06,2021-04-07 16:20:12.480000
0.00015224,-2.3237e-06,4.5653e-05,-6.6101e-06,-2.1944e-05,2021-04-07 16:20:12.482000
0.00019898,-5.8485e-06,2.0221e-05,-2.5235e-05,-4.449e-05,2021-04-07 16:20:12.484000
0.00021606,-3.7727e-06,7.9666e-07,-2.7132e-05,-4.6064e-05,2021-04-07 16:20:12.486000
0.00015513,2.2576e-06,9.9148e-06,-5.0885e-06,-1.9473e-05,2021-04-07 16:20:12.488000
3.5717e-05,-1.789e-06,3.7714e-05,3.418e-05,5.8342e-06,2021-04-07 16:20:12.490000
-5.5917e-05,1.4814e-07,5.6558e-05,6.2333e-05,2.8453e-05,2021-04-07 16:20:12.492000
-0.00012643,2.0508e-06,7.3438e-05,8.8849e-05,6.0812e-05,2021-04-07 16:20:12.494000
-0.00017423,-1.035e-06,7.8908e-05,0.00010408,7.2008e-05,2021-04-07 16:20:12.496000
-0.00012875,-2.4152e-07,4.8584e-05,8.0308e-05,4.7777e-05,2021-04-07 16:20:12.498000
-2.4188e-05,-4.0698e-06,1.1607e-05,4.8017e-05,1.4432e-05,2021-04-07 16:20:12.500000
6.2423e-05,-4.4325e-06,-1.7795e-05,2.1761e-05,-1.5536e-05,2021-04-07 16:20:12.502000
0.00012576,-5.3318e-06,-5.3987e-05,-2.4174e-06,-3.9974e-05,2021-04-07 16:20:12.504000
0.00013298,-1.0348e-05,-6.5629e-05,-3.4003e-06,-4.6442e-05,2021-04-07 16:20:12.506000
7.2068e-05,-7.072e-06,-4.6382e-05,1.6994e-05,-2.678e-05,2021-04-07 16:20:12.508000
-9.6345e-06,-5.4077e-06,-2.3073e-05,4.6592e-05,9.9607e-06,2021-04-07 16:20:12.510000
-9.8982e-05,-3.9767e-06,5.9149e-06,7.8714e-05,4.3721e-05,2021-04-07 16:20:12.512000
-0.00018324,-3.0796e-07,2.7984e-05,0.00010045,6.1547e-05,2021-04-07 16:20:12.514000
-0.00021263,-3.5641e-06,2.5464e-05,0.00010763,6.2411e-05,2021-04-07 16:20:12.516000
-0.00015577,-5.7108e-06,6.7785e-06,9.4792e-05,4.7653e-05,2021-04-07 16:20:12.518000
-5.1993e-05,-3.9668e-06,-2.2424e-05,6.2303e-05,1.6723e-05,2021-04-07 16:20:12.520000
4.1603e-05,-4.3594e-06,-5.611e-05,3.0705e-05,-1.8085e-05,2021-04-07 16:20:12.522000
9.908e-05,-6.101e-06,-7.8864e-05,1.0093e-05,-3.7439e-05,2021-04-07 16:20:12.524000
0.00010588,-5.9331e-06,-8.1257e-05,4.6023e-06,-4.0693e-05,2021-04-07 16:20:12.526000
6.4099e-05,-3.0677e-06,-6.107e-05,2.4965e-05,-2.2774e-05,2021-04-07 16:20:12.528000
-3.1188e-05,-7.4653e-07,-2.7569e-05,5.7247e-05,1.4269e-05,2021-04-07 16:20:12.530000
-0.00014181,-1.4198e-06,-9.5854e-07,8.6497e-05,3.9823e-05,2021-04-07 16:20:12.532000
-0.00020784,-3.3185e-06,1.8945e-05,0.00011321,5.7781e-05,2021-04-07 16:20:12.534000
-0.00022871,-1.6799e-06,3.4056e-05,0.00011935,7.5559e-05,2021-04-07 16:20:12.536000
-0.00017533,1.9198e-06,1.8562e-05,0.00010039,5.8494e-05,2021-04-07 16:20:12.538000
-6.4814e-05,-1.6455e-06,-2.201e-05,7.1327e-05,1.6397e-05,2021-04-07 16:20:12.540000
1.8177e-05,-8.3667e-06,-5.4269e-05,3.8657e-05,-1.4746e-05,2021-04-07 16:20:12.542000
7.5007e-05,-5.5274e-06,-7.3331e-05,1.6412e-05,-3.6235e-05,2021-04-07 16:20:12.544000
9.8557e-05,6.3354e-07,-7.7337e-05,1.1937e-05,-3.7803e-05,2021-04-07 16:20:12.546000
4.4859e-05,2.9316e-07,-5.9021e-05,3.0507e-05,-9.5287e-06,2021-04-07 16:20:12.548000
-5.7097e-05,2.4155e-06,-2.5373e-05,6.6872e-05,2.2739e-05,2021-04-07 16:20:12.550000
-0.00015056,8.0556e-06,6.3401e-06,9.4771e-05,4.73e-05,2021-04-07 16:20:12.552000
-0.00021752,7.4743e-06,2.7834e-05,0.00011809,7.0818e-05,2021-04-07 16:20:12.554000
-0.00024415,6.7542e-06,3.1762e-05,0.00012827,7.6285e-05,2021-04-07 16:20:12.556000
-0.00018984,7.5785e-06,5.8477e-06,0.00010276,5.4337e-05,2021-04-07 16:20:12.558000
-8.0605e-05,7.9644e-06,-2.5409e-05,6.9126e-05,2.2662e-05,2021-04-07 16:20:12.560000
1.3162e-05,1.2584e-05,-5.1133e-05,4.0223e-05,-1.1704e-05,2021-04-07 16:20:12.562000
8.1022e-05,8.8005e-06,-7.7887e-05,1.6587e-05,-3.7693e-05,2021-04-07 16:20:12.564000
9.0331e-05,4.9025e-06,-7.5088e-05,1.8805e-05,-3.6256e-05,2021-04-07 16:20:12.566000
2.1359e-05,1.6773e-05,-5.1083e-05,3.8626e-05,-1.2982e-05,2021-04-07 16:20:12.568000
-6.268e-05,1.8553e-05,-2.3608e-05,6.774e-05,1.9546e-05,2021-04-07 16:20:12.570000
-0.00014776,1.3934e-05,1.4005e-05,0.00010366,5.1971e-05,2021-04-07 16:20:12.572000
-0.00022864,2.1882e-05,3.6131e-05,0.00012336,6.9164e-05,2021-04-07 16:20:12.574000
-0.0002356,2.2015e-05,3.587e-05,0.0001215,6.8566e-05,2021-04-07 16:20:12.576000
-0.00016807,1.8877e-05,2.1403e-05,0.00010505,5.5459e-05,2021-04-07 16:20:12.578000
-7.219e-05,2.4575e-05,-1.02e-05,7.3215e-05,2.5106e-05,2021-04-07 16:20:12.580000
3.4165e-05,2.5493e-05,-4.1295e-05,3.926e-05,-1.1399e-05,2021-04-07 16:20:12.582000
9.3208e-05,2.4578e-05,-5.5749e-05,1.9699e-05,-3.1828e-05,2021-04-07 16:20:12.584000
7.5835e-05,2.4257e-05,-5.4409e-05,1.8127e-05,-3.0452e-05,2021-04-07 16:20:12.586000
2.2691e-05,2.19e-05,-3.5331e-05,4.1457e-05,-6.681e-06,2021-04-07 16:20:12.588000
-6.5195e-05,2.4933e-05,-7.8467e-07,7.9078e-05,2.6842e-05,2021-04-07 16:20:12.590000
-0.00017026,2.6429e-05,2.9834e-05,0.00010408,5.6536e-05,2021-04-07 16:20:12.592000
-0.00023396,2.4829e-05,4.8689e-05,0.00012156,8.0273e-05,2021-04-07 16:20:12.594000
-0.0002431,2.8289e-05,5.4141e-05,0.00012719,8.4466e-05,2021-04-07 16:20:12.596000
-0.0001839,2.5313e-05,3.4454e-05,0.00010123,6.216e-05,2021-04-07 16:20:12.598000
-7.424e-05,1.9152e-05,-1.6693e-06,6.8502e-05,2.701e-05,2021-04-07 16:20:12.600000
1.3117e-05,2.2443e-05,-3.2983e-05,4.4107e-05,-3.5406e-06,2021-04-07 16:20:12.602000
6.0705e-05,2.3393e-05,-5.0765e-05,2.3045e-05,-2.4796e-05,2021-04-07 16:20:12.604000
6.6246e-05,2.0273e-05,-5.07e-05,2.3704e-05,-2.6696e-05,2021-04-07 16:20:12.606000
7.6585e-06,1.9179e-05,-2.8242e-05,4.6858e-05,2.982e-07,2021-04-07 16:20:12.608000
-8.8153e-05,2.052e-05,3.4056e-06,7.533e-05,2.9792e-05,2021-04-07 16:20:12.610000
-0.0001754,2.4428e-05,3.2169e-05,0.00010359,5.4444e-05,2021-04-07 16:20:12.612000
-0.00024036,2.1747e-05,5.7786e-05,0.00012629,8.1494e-05,2021-04-07 16:20:12.614000
-0.00026467,1.6268e-05,5.7694e-05,0.00012684,8.2865e-05,2021-04-07 16:20:12.616000
-0.00020821,1.5897e-05,2.9573e-05,0.000102,5.6348e-05,2021-04-07 16:20:12.618000
-9.8408e-05,1.5646e-05,3.4386e-07,7.1791e-05,2.6234e-05,2021-04-07 16:20:12.620000
-7.24e-06,1.4921e-05,-2.8746e-05,4.1655e-05,-4.6005e-06,2021-04-07 16:20:12.622000
4.9231e-05,1.3155e-05,-5.1256e-05,1.845e-05,-2.738e-05,2021-04-07 16:20:12.624000
4.7932e-05,1.3466e-05,-4.8369e-05,2.0455e-05,-2.135e-05,2021-04-07 16:20:12.626000
-2.5358e-05,1.6846e-05,-2.5385e-05,4.3971e-05,5.4839e-06,2021-04-07 16:20:12.628000
-0.00012038,1.4925e-05,4.8399e-06,7.5458e-05,3.4218e-05,2021-04-07 16:20:12.630000
-0.00021116,1.1677e-05,3.4885e-05,0.00010478,6.4896e-05,2021-04-07 16:20:12.632000
-0.00027954,1.4094e-05,5.3496e-05,0.00012433,8.5208e-05,2021-04-07 16:20:12.634000
-0.0002793,1.4624e-05,5.2595e-05,0.00012408,8.3855e-05,2021-04-07 16:20:12.636000
-0.00021331,1.0251e-05,3.491e-05,0.00010245,6.4042e-05,2021-04-07 16:20:12.638000
-0.00011662,9.5404e-06,4.274e-06,7.3204e-05,3.0031e-05,2021-04-07 16:20:12.640000
-1.7425e-05,7.8985e-06,-3.1436e-05,3.8947e-05,-3.1734e-06,2021-04-07 16:20:12.642000
3.407e-05,1.8882e-06,-5.2655e-05,1.6188e-05,-2.355e-05,2021-04-07 16:20:12.644000
1.7906e-05,4.0198e-06,-4.8387e-05,2.284e-05,-1.5398e-05,2021-04-07 16:20:12.646000
-3.9112e-05,8.3854e-06,-2.4203e-05,4.4783e-05,1.4881e-05,2021-04-07 16:20:12.648000
-0.00013015,7.0378e-06,8.3211e-06,8.105e-05,4.1949e-05,2021-04-07 16:20:12.650000
-0.00023254,7.2639e-06,3.7913e-05,0.00011408,7.325e-05,2021-04-07 16:20:12.652000
-0.0002959,8.4954e-06,5.6133e-05,0.00012388,9.6104e-05,2021-04-07 16:20:12.654000
-0.00029666,1.0897e-05,5.3772e-05,0.00012687,9.1828e-05,2021-04-07 16:20:12.656000
-0.00022812,1.0502e-05,3.2064e-05,0.0001057,7.1441e-05,2021-04-07 16:20:12.658000
-0.00012088,5.9942e-06,-1.6074e-06,6.4755e-05,3.6776e-05,2021-04-07 16:20:12.660000
-3.563e-05,8.9013e-06,-3.7617e-05,3.9056e-05,3.8547e-06,2021-04-07 16:20:12.662000
1.03e-05,1.0379e-05,-5.5473e-05,2.1641e-05,-1.2938e-05,2021-04-07 16:20:12.664000
9.6198e-06,4.3585e-06,-5.0159e-05,2.2919e-05,-9.1653e-06,2021-04-07 16:20:12.666000
-5.538e-05,5.6444e-06,-2.7298e-05,4.9772e-05,2.0559e-05,2021-04-07 16:20:12.668000
-0.00015721,9.0079e-06,4.8999e-06,7.9143e-05,4.8734e-05,2021-04-07 16:20:12.670000
-0.00024844,6.8398e-06,3.1927e-05,0.00010679,6.9344e-05,2021-04-07 16:20:12.672000
-0.00030975,5.6902e-06,5.175e-05,0.00012784,9.5852e-05,2021-04-07 16:20:12.674000
-0.00031925,5.5342e-06,4.9026e-05,0.00012267,9.648e-05,2021-04-07 16:20:12.676000
-0.00024633,4.8777e-06,1.9373e-05,8.7381e-05,6.4059e-05,2021-04-07 16:20:12.678000
-0.00013583,3.0159e-06,-1.1468e-05,4.9406e-05,3.2212e-05,2021-04-07 16:20:12.680000
-4.89e-05,1.0392e-06,-4.2502e-05,2.2593e-05,5.812e-06,2021-04-07 16:20:12.682000
8.7295e-06,-2.1019e-07,-6.3323e-05,6.3318e-06,-1.1499e-05,2021-04-07 16:20:12.684000
-3.758e-07,-1.4416e-06,-5.3413e-05,1.4025e-05,-3.4797e-06,2021-04-07 16:20:12.686000
-7.7663e-05,-1.754e-06,-2.9597e-05,3.5951e-05,2.0658e-05,2021-04-07 16:20:12.688000
-0.00017191,-4.6622e-06,-8.1805e-09,6.2424e-05,5.0207e-05,2021-04-07 16:20:12.690000
-0.00027192,-8.428e-06,3.7171e-05,9.5169e-05,8.4058e-05,2021-04-07 16:20:12.692000
-0.00033813,-5.3138e-06,5.9457e-05,0.00011283,0.00010545,2021-04-07 16:20:12.694000
-0.00032389,-1.5131e-06,5.3098e-05,0.00010695,0.00010098,2021-04-07 16:20:12.696000
-0.00025422,-7.6862e-06,2.9359e-05,8.4211e-05,7.427e-05,2021-04-07 16:20:12.698000
-0.00016215,-1.277e-05,-4.6821e-06,4.7071e-05,3.8607e-05,2021-04-07 16:20:12.700000
-6.4271e-05,-1.247e-05,-3.8756e-05,1.1915e-05,1.1689e-05,2021-04-07 16:20:12.702000
-1.758e-05,-1.6807e-05,-5.1582e-05,-5.9975e-06,-1.5803e-06,2021-04-07 16:20:12.704000
-4.1116e-05,-1.6605e-05,-4.6073e-05,-3.4059e-06,8.9658e-07,2021-04-07 16:20:12.706000
-9.2591e-05,-1.2411e-05,-2.7328e-05,2.0252e-05,2.6767e-05,2021-04-07 16:20:12.708000
-0.00018671,-1.2584e-05,6.6034e-06,5.5117e-05,6.206e-05,2021-04-07 16:20:12.710000
-0.00029497,-1.4225e-05,3.576e-05,8.5972e-05,8.7073e-05,2021-04-07 16:20:12.712000
-0.00034312,-1.7074e-05,5.0319e-05,0.00010231,0.00010291,2021-04-07 16:20:12.714000
-0.00033555,-1.6681e-05,4.8678e-05,9.7881e-05,0.00010222,2021-04-07 16:20:12.716000
-0.00026314,-1.7075e-05,2.7721e-05,7.3553e-05,7.5243e-05,2021-04-07 16:20:12.718000
-0.00014429,-1.7627e-05,-5.1571e-06,3.8583e-05,4.1198e-05,2021-04-07 16:20:12.720000
-5.7946e-05,-1.5359e-05,-4.0621e-05,9.395e-06,1.1955e-05,2021-04-07 16:20:12.722000
-2.1393e-05,-1.9575e-05,-5.8303e-05,-4.2338e-06,-1.1578e-05,2021-04-07 16:20:12.724000
-3.2142e-05,-1.9947e-05,-5.0633e-05,1.0696e-06,-2.2168e-06,2021-04-07 16:20:12.726000
-0.00010154,-1.5005e-05,-2.7477e-05,2.5829e-05,3.3994e-05,2021-04-07 16:20:12.728000
-0.00019725,-1.7657e-05,1.9051e-06,5.4268e-05,5.7579e-05,2021-04-07 16:20:12.730000
-0.00028142,-1.9812e-05,2.8275e-05,7.8902e-05,8.1511e-05,2021-04-07 16:20:12.732000
-0.00033962,-1.7136e-05,4.8907e-05,9.9879e-05,0.00010942,2021-04-07 16:20:12.734000
-0.00032674,-1.7423e-05,4.5387e-05,9.6746e-05,0.00010239,2021-04-07 16:20:12.736000
-0.00024242,-2.0772e-05,1.5483e-05,6.6587e-05,6.7757e-05,2021-04-07 16:20:12.738000
-0.00015363,-2.0246e-05,-1.6527e-05,3.3048e-05,3.5803e-05,2021-04-07 16:20:12.740000
-6.672e-05,-1.9197e-05,-4.6021e-05,3.5132e-06,6.191e-06,2021-04-07 16:20:12.742000
-1.0204e-05,-2.1018e-05,-5.8453e-05,-1.4185e-05,-1.0148e-05,2021-04-07 16:20:12.744000
-3.6505e-05,-2.2018e-05,-4.5673e-05,-3.2546e-06,4.5414e-06,2021-04-07 16:20:12.746000
-0.00010422,-2.2534e-05,-2.6075e-05,2.2455e-05,2.8691e-05,2021-04-07 16:20:12.748000
-0.00018717,-1.7086e-05,-1.6003e-07,4.8898e-05,5.4271e-05,2021-04-07 16:20:12.750000
-0.00028424,-1.3241e-05,3.1345e-05,8.1956e-05,9.0306e-05,2021-04-07 16:20:12.752000
-0.00034454,-1.5911e-05,4.8932e-05,0.00010176,0.00010756,2021-04-07 16:20:12.754000
-0.00032469,-1.5032e-05,4.0192e-05,9.3551e-05,9.8405e-05,2021-04-07 16:20:12.756000
-0.00024515,-1.8732e-05,1.4845e-05,7.001e-05,7.5774e-05,2021-04-07 16:20:12.758000
-0.00015105,-2.2023e-05,-1.4747e-05,3.5655e-05,3.7773e-05,2021-04-07 16:20:12.760000
-5.5774e-05,-2.0432e-05,-4.421e-05,3.2109e-06,5.7786e-06,2021-04-07 16:20:12.762000
-7.9618e-06,-2.3785e-05,-5.9133e-05,-1.0013e-05,-5.4962e-06,2021-04-07 16:20:12.764000
-3.9618e-05,-2.3981e-05,-5.3272e-05,-2.0294e-06,5.5782e-07,2021-04-07 16:20:12.766000
-9.8541e-05,-2.1828e-05,-2.779e-05,2.609e-05,2.3925e-05,2021-04-07 16:20:12.768000
-0.00018349,-2.1148e-05,9.3171e-06,5.8781e-05,5.6202e-05,2021-04-07 16:20:12.770000
-0.00028482,-2.2173e-05,3.0581e-05,8.2978e-05,8.7587e-05,2021-04-07 16:20:12.772000
-0.0003306,-2.2995e-05,3.9972e-05,9.9692e-05,0.00010702,2021-04-07 16:20:12.774000
-0.00031368,-1.9004e-05,4.246e-05,9.5869e-05,0.00010483,2021-04-07 16:20:12.776000
-0.00024192,-2.1719e-05,1.5358e-05,6.8302e-05,7.6132e-05,2021-04-07 16:20:12.778000
-0.00012838,-2.4214e-05,-2.2081e-05,3.1526e-05,3.3888e-05,2021-04-07 16:20:12.780000
-3.9163e-05,-2.0256e-05,-4.8978e-05,-1.5902e-06,5.5235e-06,2021-04-07 16:20:12.782000
-4.2932e-06,-2.227e-05,-6.536e-05,-1.5635e-05,-7.9951e-06,2021-04-07 16:20:12.784000
-2.4089e-05,-2.4469e-05,-5.489e-05,-3.5985e-06,-8.1984e-07,2021-04-07 16:20:12.786000
-0.00010053,-2.5076e-05,-2.7573e-05,2.4575e-05,3.0694e-05,2021-04-07 16:20:12.788000
-0.00019493,-2.4455e-05,-2.0216e-06,5.198e-05,5.5024e-05,2021-04-07 16:20:12.790000
-0.00027738,-2.2901e-05,2.4535e-05,7.886e-05,7.8276e-05,2021-04-07 16:20:12.792000
-0.00033355,-2.3505e-05,4.1454e-05,9.7778e-05,0.00010314,2021-04-07 16:20:12.794000
-0.00030711,-1.8829e-05,3.4908e-05,8.6886e-05,9.3869e-05,2021-04-07 16:20:12.796000
-0.00020827,-1.7449e-05,8.281e-06,5.8489e-05,6.443e-05,2021-04-07 16:20:12.798000
-0.00012224,-2.1092e-05,-2.6073e-05,2.5099e-05,3.2992e-05,2021-04-07 16:20:12.800000
-4.577e-05,-2.1007e-05,-5.687e-05,-6.1446e-06,-3.3174e-07,2021-04-07 16:20:12.802000
1.3231e-05,-2.3574e-05,-7.2045e-05,-1.8104e-05,-1.1443e-05,2021-04-07 16:20:12.804000
-1.367e-05,-2.1122e-05,-5.9846e-05,-1.0029e-05,1.4909e-06,2021-04-07 16:20:12.806000
-9.3813e-05,-1.3651e-05,-3.0131e-05,1.7941e-05,2.6272e-05,2021-04-07 16:20:12.808000
-0.00017943,-1.4643e-05,-7.284e-07,5.2262e-05,6.007e-05,2021-04-07 16:20:12.810000
-0.00027058,-1.728e-05,2.7412e-05,7.8142e-05,8.8539e-05,2021-04-07 16:20:12.812000
-0.00032271,-1.5537e-05,4.2699e-05,9.2066e-05,9.9297e-05,2021-04-07 16:20:12.814000
-0.00029477,-1.3977e-05,2.9153e-05,8.267e-05,9.2095e-05,2021-04-07 16:20:12.816000
-0.00021494,-1.8183e-05,2.2796e-06,5.5971e-05,6.5609e-05,2021-04-07 16:20:12.818000
-0.00011894,-2.1782e-05,-2.6761e-05,2.1696e-05,2.6382e-05,2021-04-07 16:20:12.820000
-1.3385e-05,-1.7079e-05,-5.9919e-05,-1.0058e-05,-3.0911e-06,2021-04-07 16:20:12.822000
2.9234e-05,-1.7431e-05,-7.6117e-05,-2.1373e-05,-1.3933e-05,2021-04-07 16:20:12.824000
-2.2363e-05,-1.9648e-05,-6.0976e-05,-1.197e-05,-3.3065e-06,2021-04-07 16:20:12.826000
-8.3263e-05,-1.3569e-05,-3.2263e-05,1.3862e-05,2.7921e-05,2021-04-07 16:20:12.828000
-0.00016412,-1.3431e-05,-6.8173e-06,4.6245e-05,5.9338e-05,2021-04-07 16:20:12.830000
-0.00026664,-1.6089e-05,2.1602e-05,7.0728e-05,8.4692e-05,2021-04-07 16:20:12.832000
-0.00030878,-1.5289e-05,4.1347e-05,8.6103e-05,9.6764e-05,2021-04-07 16:20:12.834000
-0.00028584,-2.1341e-05,2.5943e-05,8.0467e-05,8.5151e-05,2021-04-07 16:20:12.836000
-0.00020074,-2.5016e-05,-3.8945e-06,4.7461e-05,5.7071e-05,2021-04-07 16:20:12.838000
-8.9372e-05,-2.2385e-05,-2.8662e-05,1.4204e-05,2.1551e-05,2021-04-07 16:20:12.840000
-1.6125e-05,-2.3867e-05,-5.9034e-05,-9.9722e-06,-4.8376e-06,2021-04-07 16:20:12.842000
2.0735e-05,-2.4099e-05,-7.7444e-05,-2.8717e-05,-1.534e-05,2021-04-07 16:20:12.844000
8.305e-07,-2.1979e-05,-6.2802e-05,-1.9878e-05,-4.014e-06,2021-04-07 16:20:12.846000
-7.9337e-05,-2.1071e-05,-3.232e-05,1.304e-05,2.5007e-05,2021-04-07 16:20:12.848000
-0.00017532,-2.0355e-05,-7.2248e-06,4.3355e-05,5.0903e-05,2021-04-07 16:20:12.850000
-0.00026216,-1.9942e-05,1.8233e-05,6.9425e-05,7.9348e-05,2021-04-07 16:20:12.852000
-0.00030356,-1.4686e-05,3.689e-05,8.5905e-05,9.6715e-05,2021-04-07 16:20:12.854000
-0.00026536,-1.3973e-05,2.6168e-05,7.218e-05,8.3339e-05,2021-04-07 16:20:12.856000
-0.0001713,-2.2597e-05,-5.0832e-06,3.5275e-05,5.2527e-05,2021-04-07 16:20:12.858000
-8.0861e-05,-2.3529e-05,-3.8952e-05,4.7511e-06,1.7291e-05,2021-04-07 16:20:12.860000
-5.9594e-06,-1.9179e-05,-6.6623e-05,-1.8786e-05,-8.9123e-06,2021-04-07 16:20:12.862000
4.2235e-05,-1.9928e-05,-7.7916e-05,-3.4959e-05,-2.2114e-05,2021-04-07 16:20:12.864000
8.8899e-06,-2.2006e-05,-6.6861e-05,-2.4429e-05,-1.2402e-05,2021-04-07 16:20:12.866000
-7.4675e-05,-1.8514e-05,-4.2069e-05,6.5232e-07,1.6543e-05,2021-04-07 16:20:12.868000
-0.00015237,-1.3438e-05,-1.5437e-05,3.0992e-05,4.203e-05,2021-04-07 16:20:12.870000
-0.0002386,-1.6375e-05,1.5899e-05,6.4611e-05,7.2701e-05,2021-04-07 16:20:12.872000
-0.00029227,-1.6612e-05,3.3936e-05,7.7696e-05,9.1181e-05,2021-04-07 16:20:12.874000
-0.00024983,-1.086e-05,1.8398e-05,6.5938e-05,7.2502e-05,2021-04-07 16:20:12.876000
-0.00015294,-1.3461e-05,-1.0532e-05,3.3593e-05,4.0502e-05,2021-04-07 16:20:12.878000
-6.5745e-05,-2.0426e-05,-3.8255e-05,-5.9146e-06,9.6639e-06,2021-04-07 16:20:12.880000
1.144e-05,-2.2532e-05,-6.3676e-05,-2.9135e-05,-1.5072e-05,2021-04-07 16:20:12.882000
4.9417e-05,-2.0727e-05,-7.4097e-05,-3.5609e-05,-2.3977e-05,2021-04-07 16:20:12.884000
8.076e-06,-1.9814e-05,-6.2975e-05,-2.4859e-05,-1.4048e-05,2021-04-07 16:20:12.886000
-6.2688e-05,-2.3267e-05,-3.7971e-05,6.8395e-07,1.1835e-05,2021-04-07 16:20:12.888000
-0.00014087,-2.4025e-05,-7.1414e-06,3.1681e-05,4.0622e-05,2021-04-07 16:20:12.890000
-0.00023581,-2.1217e-05,2.0195e-05,6.0389e-05,6.79e-05,2021-04-07 16:20:12.892000
-0.00027949,-2.1002e-05,3.2972e-05,7.2059e-05,8.5762e-05,2021-04-07 16:20:12.894000
-0.00023861,-1.8635e-05,2.4265e-05,6.2412e-05,7.3921e-05,2021-04-07 16:20:12.896000
-0.00014901,-1.9973e-05,-7.2785e-06,3.1331e-05,4.0289e-05,2021-04-07 16:20:12.898000
-4.274e-05,-2.6471e-05,-4.209e-05,-8.8801e-06,6.3398e-06,2021-04-07 16:20:12.900000
4.2249e-05,-2.2591e-05,-6.7248e-05,-3.5143e-05,-2.4263e-05,2021-04-07 16:20:12.902000
7.4577e-05,-2.0855e-05,-8.2414e-05,-4.6597e-05,-3.7893e-05,2021-04-07 16:20:12.904000
3.9741e-05,-3.0769e-05,-6.6689e-05,-3.5478e-05,-2.063e-05,2021-04-07 16:20:12.906000
-4.8011e-05,-3.0559e-05,-3.2987e-05,-1.679e-06,9.5109e-06,2021-04-07 16:20:12.908000
-0.00014095,-2.3319e-05,-1.1974e-05,2.7584e-05,3.44e-05,2021-04-07 16:20:12.910000
-0.00022136,-2.5867e-05,9.7018e-06,4.9405e-05,5.9572e-05,2021-04-07 16:20:12.912000
-0.00026509,-2.8223e-05,2.6219e-05,6.2474e-05,7.6453e-05,2021-04-07 16:20:12.914000
-0.00021815,-2.6724e-05,1.4671e-05,5.1872e-05,6.0326e-05,2021-04-07 16:20:12.916000
-0.00011691,-3.0927e-05,-1.5262e-05,2.1133e-05,2.5835e-05,2021-04-07 16:20:12.918000
-2.3236e-05,-3.2963e-05,-5.0258e-05,-1.6921e-05,-6.6784e-06,2021-04-07 16:20:12.920000
5.8953e-05,-2.827e-05,-7.7615e-05,-4.4013e-05,-3.8501e-05,2021-04-07 16:20:12.922000
9.2872e-05,-2.6595e-05,-8.8524e-05,-5.2599e-05,-4.4826e-05,2021-04-07 16:20:12.924000
5.4035e-05,-2.7968e-05,-7.7538e-05,-4.4809e-05,-2.602e-05,2021-04-07 16:20:12.926000
-2.579e-05,-2.7229e-05,-4.1572e-05,-1.7426e-05,-4.8872e-06,2021-04-07 16:20:12.928000
-0.0001156,-2.1846e-05,-9.2165e-06,1.6068e-05,2.7974e-05,2021-04-07 16:20:12.930000
-0.00019379,-1.8421e-05,9.0449e-06,3.9387e-05,5.7542e-05,2021-04-07 16:20:12.932000
-0.00023713,-2.58e-05,1.9805e-05,4.7948e-05,6.0214e-05,2021-04-07 16:20:12.934000
-0.00020224,-2.9335e-05,4.7547e-06,3.6079e-05,4.5597e-05,2021-04-07 16:20:12.936000
-0.00010367,-2.3337e-05,-2.3712e-05,3.7333e-06,1.9855e-05,2021-04-07 16:20:12.938000
-5.0936e-06,-2.1268e-05,-5.1262e-05,-3.578e-05,-1.6245e-05,2021-04-07 16:20:12.940000
9.1268e-05,-1.6333e-05,-8.0846e-05,-6.1394e-05,-4.3333e-05,2021-04-07 16:20:12.942000
0.0001318,-1.3378e-05,-9.1795e-05,-6.949e-05,-4.5356e-05,2021-04-07 16:20:12.944000
7.0568e-05,-2.6617e-05,-7.9295e-05,-6.5243e-05,-3.8585e-05,2021-04-07 16:20:12.946000
-6.8795e-06,-3.5989e-05,-5.3634e-05,-3.8739e-05,-2.1827e-05,2021-04-07 16:20:12.948000
-8.6984e-05,-3.2751e-05,-2.4354e-05,4.9948e-07,1.6547e-05,2021-04-07 16:20:12.950000
-0.0001787,-3.0805e-05,-4.4015e-06,2.4326e-05,4.4853e-05,2021-04-07 16:20:12.952000
-0.00020403,-2.7718e-05,6.1414e-06,2.5802e-05,5.1726e-05,2021-04-07 16:20:12.954000
-0.00015036,-2.0454e-05,2.1543e-06,1.0567e-05,4.4282e-05,2021-04-07 16:20:12.956000
-5.264e-05,-1.4873e-05,-2.7955e-05,-1.9014e-05,1.0273e-05,2021-04-07 16:20:12.958000
5.4833e-05,-1.7424e-05,-6.8655e-05,-5.494e-05,-2.9369e-05,2021-04-07 16:20:12.960000
0.00012315,-2.636e-05,-9.3583e-05,-8.0674e-05,-5.1983e-05,2021-04-07 16:20:12.962000
0.00014024,-2.7777e-05,-9.855e-05,-9.1137e-05,-6.0011e-05,2021-04-07 16:20:12.964000
0.00011496,-2.1764e-05,-7.9354e-05,-7.8487e-05,-4.4694e-05,2021-04-07 16:20:12.966000
3.5301e-05,-2.0727e-05,-4.6834e-05,-4.2477e-05,-1.683e-05,2021-04-07 16:20:12.968000
-6.8432e-05,-2.4942e-05,-2.6469e-05,-1.5048e-05,5.0361e-06,2021-04-07 16:20:12.970000
-0.00014201,-2.9894e-05,-4.7521e-06,8.1141e-06,3.0799e-05,2021-04-07 16:20:12.972000
-0.00017865,-3.0451e-05,1.201e-05,2.8516e-05,4.7313e-05,2021-04-07 16:20:12.974000
-0.00013758,-2.5993e-05,-1.1204e-05,8.5273e-06,2.7832e-05,2021-04-07 16:20:12.976000
-2.6759e-05,-2.6519e-05,-5.0155e-05,-3.0398e-05,-6.2411e-06,2021-04-07 16:20:12.978000
6.2297e-05,-2.6669e-05,-7.0071e-05,-5.656e-05,-3.1781e-05,2021-04-07 16:20:12.980000
0.0001298,-2.3366e-05,-8.4923e-05,-7.8928e-05,-5.7278e-05,2021-04-07 16:20:12.982000
0.00016734,-2.9098e-05,-9.8635e-05,-9.0485e-05,-7.0993e-05,2021-04-07 16:20:12.984000
0.00012404,-3.0125e-05,-8.6299e-05,-7.5477e-05,-5.6746e-05,2021-04-07 16:20:12.986000
3.489e-05,-2.1801e-05,-5.273e-05,-4.4548e-05,-2.8798e-05,2021-04-07 16:20:12.988000
-4.9926e-05,-1.9624e-05,-2.0674e-05,-1.9153e-05,4.8895e-06,2021-04-07 16:20:12.990000
-0.00012267,-1.9355e-05,6.6967e-06,2.0776e-06,3.5047e-05,2021-04-07 16:20:12.992000
-0.00016081,-2.2083e-05,1.6556e-05,1.0902e-05,3.7676e-05,2021-04-07 16:20:12.994000
-0.00011519,-2.3322e-05,1.2725e-06,-7.5735e-06,1.7398e-05,2021-04-07 16:20:12.996000
-1.2943e-05,-2.1057e-05,-2.6985e-05,-4.1722e-05,-1.219e-05,2021-04-07 16:20:12.998000
8.3649e-05,-2.7874e-05,-6.1534e-05,-7.7081e-05,-4.5823e-05,2021-04-07 16:20:13
0.00016527,-2.6484e-05,-8.5154e-05,-9.913e-05,-6.6401e-05,2021-04-07 16:20:13.002000
0.0001912,-2.1019e-05,-8.6071e-05,-0.00010063,-7.1364e-05,2021-04-07 16:20:13.004000
0.00014375,-2.7879e-05,-7.4161e-05,-8.3476e-05,-5.9956e-05,2021-04-07 16:20:13.006000
6.0446e-05,-2.3881e-05,-4.9098e-05,-5.5118e-05,-2.8249e-05,2021-04-07 16:20:13.008000
-3.7221e-05,-1.9108e-05,-1.3992e-05,-2.5345e-05,2.3595e-07,2021-04-07 16:20:13.010000
-0.00010993,-2.1299e-05,8.9175e-06,3.1497e-07,1.8487e-05,2021-04-07 16:20:13.012000
-0.00012374,-1.5938e-05,1.1376e-05,3.4758e-06,3.0561e-05,2021-04-07 16:20:13.014000
-7.3613e-05,-1.8367e-05,3.0338e-06,-1.2284e-05,1.3777e-05,2021-04-07 16:20:13.016000
2.111e-05,-2.2472e-05,-2.5313e-05,-3.4683e-05,-2.3635e-05,2021-04-07 16:20:13.018000
0.00011963,-2.6991e-05,-6.8668e-05,-7.1852e-05,-5.1156e-05,2021-04-07 16:20:13.020000
0.00019213,-3.0217e-05,-8.5514e-05,-0.00010185,-7.1545e-05,2021-04-07 16:20:13.022000
0.00021598,-1.7564e-05,-8.1642e-05,-0.00010427,-8.407e-05,2021-04-07 16:20:13.024000
0.00018163,-1.961e-05,-7.1759e-05,-8.4873e-05,-7.1409e-05,2021-04-07 16:20:13.026000
9.4291e-05,-2.6164e-05,-3.9158e-05,-4.9163e-05,-3.8878e-05,2021-04-07 16:20:13.028000
-1.2804e-06,-1.2608e-05,-1.1398e-05,-1.684e-05,-7.2387e-06,2021-04-07 16:20:13.030000
-6.3759e-05,-1.0863e-05,6.316e-06,3.1145e-06,1.8055e-05,2021-04-07 16:20:13.032000
-0.00010216,-1.3817e-05,2.643e-05,1.5416e-05,3.2177e-05,2021-04-07 16:20:13.034000
-6.8426e-05,-9.1032e-06,1.2651e-05,-3.3194e-09,1.6145e-05,2021-04-07 16:20:13.036000
4.3959e-05,-1.8245e-05,-2.672e-05,-4.1638e-05,-2.4576e-05,2021-04-07 16:20:13.038000
0.00013488,-2.8844e-05,-5.6992e-05,-7.2347e-05,-6.0722e-05,2021-04-07 16:20:13.040000
0.00019193,-2.6106e-05,-7.8017e-05,-9.1531e-05,-8.2994e-05,2021-04-07 16:20:13.042000
0.00022025,-2.7022e-05,-8.2462e-05,-9.9099e-05,-8.7963e-05,2021-04-07 16:20:13.044000
0.00017112,-3.2731e-05,-6.5157e-05,-7.7552e-05,-6.9466e-05,2021-04-07 16:20:13.046000
7.8807e-05,-2.3563e-05,-3.7938e-05,-4.9406e-05,-3.9388e-05,2021-04-07 16:20:13.048000
7.6924e-09,-1.2354e-05,-3.4851e-06,-2.1113e-05,-9.2411e-06,2021-04-07 16:20:13.050000
-7.4031e-05,-1.6765e-05,2.632e-05,9.0446e-06,1.3965e-05,2021-04-07 16:20:13.052000
-0.0001146,-1.6553e-05,2.7112e-05,1.342e-05,1.8736e-05,2021-04-07 16:20:13.054000
-5.801e-05,-1.1842e-05,7.8172e-06,-5.6434e-06,1.4496e-06,2021-04-07 16:20:13.056000
5.2874e-05,-1.4833e-05,-2.0301e-05,-3.9209e-05,-3.4146e-05,2021-04-07 16:20:13.058000
0.00015604,-1.5565e-05,-5.3241e-05,-7.8087e-05,-7.0879e-05,2021-04-07 16:20:13.060000
0.000244,-1.5457e-05,-7.1065e-05,-9.6826e-05,-8.9033e-05,2021-04-07 16:20:13.062000
0.00025489,-1.5858e-05,-7.1897e-05,-9.215e-05,-9.2191e-05,2021-04-07 16:20:13.064000
0.00018785,-1.6305e-05,-5.3345e-05,-7.3192e-05,-8.3643e-05,2021-04-07 16:20:13.066000
0.00011438,-1.6748e-05,-2.0402e-05,-4.7543e-05,-5.6495e-05,2021-04-07 16:20:13.068000
3.3212e-05,-6.1198e-06,9.5949e-06,-1.4517e-05,-2.234e-05,2021-04-07 16:20:13.070000
-3.4615e-05,7.434e-06,3.5394e-05,1.5747e-05,3.8219e-08,2021-04-07 16:20:13.072000
-4.0239e-05,9.5127e-06,4.3298e-05,1.829e-05,4.7941e-06,2021-04-07 16:20:13.074000
2.1625e-05,9.4579e-06,2.8841e-05,-5.1152e-06,-1.3254e-05,2021-04-07 16:20:13.076000
0.0001319,1.3804e-05,-3.1913e-06,-4.2354e-05,-4.9543e-05,2021-04-07 16:20:13.078000
0.00023956,1.2826e-05,-4.1417e-05,-7.8749e-05,-8.3234e-05,2021-04-07 16:20:13.080000
0.00030236,8.1505e-06,-5.8294e-05,-0.00010179,-0.00010362,2021-04-07 16:20:13.082000
0.00031116,7.593e-06,-6.3412e-05,-0.00010959,-0.00010802,2021-04-07 16:20:13.084000
0.00027155,4.6931e-06,-5.4214e-05,-9.2908e-05,-9.1479e-05,2021-04-07 16:20:13.086000
0.00018975,2.0012e-06,-1.656e-05,-6.1968e-05,-6.0367e-05,2021-04-07 16:20:13.088000
9.069e-05,4.311e-06,1.3806e-05,-3.4515e-05,-3.2144e-05,2021-04-07 16:20:13.090000
2.8072e-05,3.3166e-06,2.942e-05,-1.1714e-05,-1.5861e-05,2021-04-07 16:20:13.092000
2.0941e-05,3.5894e-06,4.1021e-05,-3.6658e-06,-1.2327e-05,2021-04-07 16:20:13.094000
8.5218e-05,8.0466e-06,2.5813e-05,-2.1259e-05,-3.4879e-05,2021-04-07 16:20:13.096000
0.00021495,1.2081e-05,-1.1126e-05,-5.4532e-05,-7.7189e-05,2021-04-07 16:20:13.098000
0.0003198,2.1225e-05,-4.3186e-05,-8.2982e-05,-0.00010634,2021-04-07 16:20:13.100000
0.0003767,2.8922e-05,-6.0219e-05,-0.00010082,-0.0001238,2021-04-07 16:20:13.102000
0.00040628,2.9625e-05,-5.4826e-05,-0.00010204,-0.00013117,2021-04-07 16:20:13.104000
0.00036183,3.332e-05,-3.4695e-05,-7.9465e-05,-0.00010819,2021-04-07 16:20:13.106000
0.00027466,3.936e-05,-1.1784e-05,-5.301e-05,-7.6337e-05,2021-04-07 16:20:13.108000
0.00020343,4.219e-05,2.0822e-05,-2.967e-05,-5.6449e-05,2021-04-07 16:20:13.110000
0.00012754,3.8609e-05,4.7832e-05,-7.7609e-06,-3.4884e-05,2021-04-07 16:20:13.112000
0.00011032,3.1498e-05,4.1352e-05,-1.5136e-05,-2.6137e-05,2021-04-07 16:20:13.114000
0.00020309,3.1244e-05,1.4232e-05,-4.7149e-05,-4.9242e-05,2021-04-07 16:20:13.116000
0.00029672,2.9423e-05,-1.9722e-05,-7.9244e-05,-8.4608e-05,2021-04-07 16:20:13.118000
0.00036882,1.8443e-05,-6.5607e-05,-0.00011805,-0.00011786,2021-04-07 16:20:13.120000
0.00044925,1.101e-05,-9.8468e-05,-0.00014037,-0.00014399,2021-04-07 16:20:13.122000
0.00045454,5.815e-06,-9.9366e-05,-0.00013319,-0.00014509,2021-04-07 16:20:13.124000
0.00038957,2.3053e-06,-8.4953e-05,-0.00012529,-0.00012198,2021-04-07 16:20:13.126000
0.00030559,8.7897e-06,-5.7068e-05,-0.00010057,-8.8756e-05,2021-04-07 16:20:13.128000
0.00021171,1.295e-05,-2.5538e-05,-6.2961e-05,-5.4096e-05,2021-04-07 16:20:13.130000
0.00015255,9.2555e-06,-1.4961e-05,-4.8207e-05,-3.5736e-05,2021-04-07 16:20:13.132000
0.00012341,8.7677e-06,-1.7473e-05,-3.8738e-05,-3.9153e-05,2021-04-07 16:20:13.134000
-0.00014391,-0.00011941,-1.537e-05,2.1525e-05,-2.9884e-05,2021-04-07 16:20:13.126000
-5.3068e-05,-0.00014323,-2.4782e-05,-3.2652e-06,-8.3385e-05,2021-04-07 16:20:13.128000
5.4327e-05,-0.00013464,-8.2503e-05,-3.7734e-05,-0.00010319,2021-04-07 16:20:13.130000
0.00010931,-0.00014471,-9.0432e-05,-5.5584e-05,-0.00012875,2021-04-07 16:20:13.132000
9.6587e-05,-0.00014679,-9.8027e-05,-5.6681e-05,-0.00012946,2021-04-07 16:20:13.134000
5.1537e-05,-0.00014608,-8.1646e-05,-3.1098e-05,-0.00010959,2021-04-07 16:20:13.136000
-3.4517e-05,-0.00014266,-4.3529e-05,2.2448e-06,-7.4221e-05,2021-04-07 16:20:13.138000
-0.00013624,-0.00013822,-2.1425e-05,2.5528e-05,-3.8176e-05,2021-04-07 16:20:13.140000
-0.00019739,-0.00014041,-6.6318e-06,4.9306e-05,-2.2934e-05,2021-04-07 16:20:13.142000
-0.00022125,-0.0001415,-1.267e-06,5.996e-05,-1.6316e-05,2021-04-07 16:20:13.144000
-0.00018328,-0.00013744,-1.3278e-05,4.5418e-05,-2.9891e-05,2021-04-07 16:20:13.146000
-7.2741e-05,-0.00013842,-4.6731e-05,1.384e-05,-6.6881e-05,2021-04-07 16:20:13.148000
2.0016e-05,-0.00014285,-8.2031e-05,-2.2686e-05,-9.8703e-05,2021-04-07 16:20:13.150000
7.1e-05,-0.00013969,-0.00010457,-5.0439e-05,-0.00012066,2021-04-07 16:20:13.152000
9.375e-05,-0.00014056,-0.00010624,-5.0845e-05,-0.00012211,2021-04-07 16:20:13.154000
3.8003e-05,-0.00014225,-7.8489e-05,-2.1729e-05,-9.4401e-05,2021-04-07 16:20:13.156000
-6.2167e-05,-0.00013666,-5.1198e-05,9.5533e-06,-6.561e-05,2021-04-07 16:20:13.158000
-0.00014031,-0.00013351,-2.8188e-05,3.4618e-05,-3.736e-05,2021-04-07 16:20:13.160000
-0.00020735,-0.00013161,8.8076e-07,5.908e-05,-7.2304e-06,2021-04-07 16:20:13.162000
-0.00022137,-0.00013096,2.5422e-06,6.2021e-05,-8.1838e-06,2021-04-07 16:20:13.164000
-0.0001436,-0.00013295,-2.8505e-05,3.4604e-05,-3.6794e-05,2021-04-07 16:20:13.166000
-4.5321e-05,-0.00013266,-6.0644e-05,-2.0688e-07,-6.8776e-05,2021-04-07 16:20:13.168000
4.2489e-05,-0.00013007,-8.5798e-05,-3.3984e-05,-0.00010168,2021-04-07 16:20:13.170000
0.00011547,-0.00013163,-0.0001099,-5.8873e-05,-0.00012231,2021-04-07 16:20:13.172000
0.00011128,-0.00013338,-0.00011343,-5.1838e-05,-0.00011893,2021-04-07 16:20:13.174000
4.1893e-05,-0.00012797,-8.5616e-05,-2.598e-05,-9.9556e-05,2021-04-07 16:20:13.176000
-4.2333e-05,-0.00012525,-5.1576e-05,-6.647e-07,-6.7222e-05,2021-04-07 16:20:13.178000
-0.00013621,-0.00012363,-2.1308e-05,3.0351e-05,-3.1473e-05,2021-04-07 16:20:13.180000
-0.00020179,-0.00012293,-4.5817e-07,5.3873e-05,-1.4005e-05,2021-04-07 16:20:13.182000
-0.00020159,-0.00012791,-2.4772e-06,5.1446e-05,-1.3052e-05,2021-04-07 16:20:13.184000
-0.00013919,-0.00013143,-1.6484e-05,4.19e-05,-4.2591e-05,2021-04-07 16:20:13.186000
-4.5893e-05,-0.0001508,-3.1432e-05,4.5536e-05,-0.00011176,2021-04-07 16:20:13.188000
3.9367e-05,-0.00018434,-4.4524e-05,5.1986e-05,-0.00017301,2021-04-07 16:20:13.190000
8.4015e-05,-0.0002186,-3.8508e-05,7.0643e-05,-0.00022303,2021-04-07 16:20:13.192000
6.106e-05,-0.00026278,-6.6036e-06,0.00010921,-0.00026401,2021-04-07 16:20:13.194000
-1.1144e-06,-0.00030314,3.8162e-05,0.00016439,-0.00027335,2021-04-07 16:20:13.196000
-9.8606e-05,-0.00034021,9.5119e-05,0.00024852,-0.00027693,2021-04-07 16:20:13.198000
-0.00021987,-0.0003576,0.00015415,0.00031973,-0.0002678,2021-04-07 16:20:13.200000
-0.00026096,-0.0003178,0.00020066,0.00034849,-0.00024698,2021-04-07 16:20:13.202000
-0.00021638,-0.00024174,0.0002196,0.00036027,-0.00024039,2021-04-07 16:20:13.204000
-0.00013967,-0.00017659,0.00017312,0.00036712,-0.00023809,2021-04-07 16:20:13.206000
-4.0689e-05,-0.0001334,7.9462e-05,0.00036967,-0.00022482,2021-04-07 16:20:13.208000
5.4191e-05,-3.7695e-05,-2.7546e-05,0.00036264,-0.00017651,2021-04-07 16:20:13.210000
0.00015004,0.00013041,-0.00013377,0.00036603,-0.000111,2021-04-07 16:20:13.212000
0.00022257,0.00031031,-0.00019505,0.00033935,-1.0318e-05,2021-04-07 16:20:13.214000
0.00023316,0.00050933,-0.00023985,0.00024348,0.00013796,2021-04-07 16:20:13.216000
0.00027115,0.00072713,-0.00027961,0.00010222,0.00026328,2021-04-07 16:20:13.218000
0.00038956,0.00097631,-0.00026042,-0.00011442,0.00039341,2021-04-07 16:20:13.220000
0.0004977,0.0012116,-0.00023544,-0.00034513,0.00051065,2021-04-07 16:20:13.222000
0.00065944,0.0013446,-0.00024824,-0.00057572,0.00055241,2021-04-07 16:20:13.224000
0.00093704,0.0014525,-0.00026319,-0.00082912,0.00056776,2021-04-07 16:20:13.226000
0.0011489,0.0015068,-0.00025964,-0.0010034,0.00053537,2021-04-07 16:20:13.228000
0.001297,0.001419,-0.00022853,-0.0011663,0.0004521,2021-04-07 16:20:13.230000
0.0014076,0.0013054,-0.0002115,-0.0013075,0.00039813,2021-04-07 16:20:13.232000
0.001365,0.0012038,-0.00021301,-0.0013357,0.00038362,2021-04-07 16:20:13.234000
0.0012546,0.0010248,-0.0001697,-0.0013283,0.00037205,2021-04-07 16:20:13.236000
0.0010012,0.0006954,-0.0001527,-0.0012095,0.00036367,2021-04-07 16:20:13.238000
0.00051111,0.0002935,-0.00027043,-0.00095498,0.0003958,2021-04-07 16:20:13.240000
8.994e-05,4.0027e-05,-0.00042737,-0.0006972,0.00042945,2021-04-07 16:20:13.242000
-0.00012249,-8.9199e-05,-0.00047964,-0.00049855,0.00039971,2021-04-07 16:20:13.244000
-0.00019794,-0.00019693,-0.00044134,-0.00040641,0.0003006,2021-04-07 16:20:13.246000
-0.00010201,-0.00020489,-0.0003804,-0.00037514,0.00016996,2021-04-07 16:20:13.248000
7.0131e-05,-0.00014322,-0.00031396,-0.00034312,8.4626e-05,2021-04-07 16:20:13.250000
0.00015724,-0.00010548,-0.00025083,-0.0003147,2.7524e-05,2021-04-07 16:20:13.252000
0.0001565,-0.00010545,-0.00019673,-0.00026946,-3.336e-05,2021-04-07 16:20:13.254000
0.00012615,-0.00010107,-0.00013304,-0.00020782,-4.6597e-05,2021-04-07 16:20:13.256000
8.2025e-05,-4.9872e-05,-5.5295e-05,-0.00014322,-2.493e-05,2021-04-07 16:20:13.258000
3.1779e-05,-5.0026e-06,1.2443e-05,-7.8519e-05,-5.3749e-06,2021-04-07 16:20:13.260000
1.1244e-05,1.5691e-05,5.8671e-05,-3.0221e-05,5.0971e-06,2021-04-07 16:20:13.262000
3.2548e-05,2.9485e-05,7.5141e-05,-1.7357e-05,-4.2111e-06,2021-04-07 16:20:13.264000
9.5202e-05,1.6909e-05,5.0254e-05,-3.746e-05,-3.6491e-05,2021-04-07 16:20:13.266000
0.00018807,-1.521e-06,8.1393e-06,-6.4323e-05,-8.2391e-05,2021-04-07 16:20:13.268000
0.0002582,-1.7162e-05,-2.5213e-05,-8.9179e-05,-0.0001172,2021-04-07 16:20:13.270000
0.00028917,-2.8884e-05,-4.3312e-05,-0.00010219,-0.00013456,2021-04-07 16:20:13.272000
0.00027431,-2.9506e-05,-3.0623e-05,-7.9749e-05,-0.00013128,2021-04-07 16:20:13.274000
0.00019132,-3.8213e-05,5.5201e-07,-4.484e-05,-0.00010663,2021-04-07 16:20:13.276000
8.2619e-05,-4.5677e-05,2.7529e-05,-1.9438e-05,-7.6427e-05,2021-04-07 16:20:13.278000
-1.0126e-05,-4.2846e-05,6.0459e-05,1.6517e-05,-4.5486e-05,2021-04-07 16:20:13.280000
-7.5032e-05,-4.3902e-05,8.7281e-05,4.7468e-05,-2.9125e-05,2021-04-07 16:20:13.282000
-6.5807e-05,-4.7423e-05,8.421e-05,4.564e-05,-3.8995e-05,2021-04-07 16:20:13.284000
1.3865e-05,-5.1812e-05,5.947e-05,2.3576e-05,-6.5978e-05,2021-04-07 16:20:13.286000
9.7842e-05,-5.5421e-05,2.5249e-05,-6.0575e-06,-9.877e-05,2021-04-07 16:20:13.288000
0.00017795,-5.3342e-05,-4.6656e-06,-3.7846e-05,-0.0001307,2021-04-07 16:20:13.290000
0.00024053,-5.2845e-05,-1.5744e-05,-5.1148e-05,-0.00014975,2021-04-07 16:20:13.292000
0.00022544,-5.2869e-05,-5.4743e-06,-3.7051e-05,-0.00013613,2021-04-07 16:20:13.294000
0.00014349,-4.8326e-05,2.0876e-05,-1.4617e-05,-0.00010657,2021-04-07 16:20:13.296000
4.7741e-05,-4.8916e-05,5.1277e-05,1.6381e-05,-8.0487e-05,2021-04-07 16:20:13.298000
-4.3601e-05,-5.0346e-05,7.9741e-05,5.5879e-05,-5.2361e-05,2021-04-07 16:20:13.300000
-0.00010115,-4.5302e-05,9.7275e-05,7.3896e-05,-3.4393e-05,2021-04-07 16:20:13.302000
-8.3467e-05,-4.1842e-05,9.0636e-05,6.6317e-05,-3.9835e-05,2021-04-07 16:20:13.304000
-1.204e-05,-4.4735e-05,6.4541e-05,4.1695e-05,-7.258e-05,2021-04-07 16:20:13.306000
7.8932e-05,-5.4232e-05,2.9917e-05,4.8465e-06,-0.000111,2021-04-07 16:20:13.308000
0.00017797,-5.6441e-05,1.9098e-06,-2.2627e-05,-0.00013142,2021-04-07 16:20:13.310000
0.00022834,-5.05e-05,-9.4232e-06,-3.2284e-05,-0.00014499,2021-04-07 16:20:13.312000
0.00020804,-5.2285e-05,-4.7708e-06,-2.7159e-05,-0.00014035,2021-04-07 16:20:13.314000
0.00013919,-5.0873e-05,2.0745e-05,-4.2797e-06,-0.00011031,2021-04-07 16:20:13.316000
3.1816e-05,-4.571e-05,5.6758e-05,3.3639e-05,-7.9335e-05,2021-04-07 16:20:13.318000
-5.6601e-05,-4.6111e-05,8.6132e-05,6.5496e-05,-5.1063e-05,2021-04-07 16:20:13.320000
-9.1399e-05,-3.8279e-05,0.00010299,7.6946e-05,-3.3126e-05,2021-04-07 16:20:13.322000
-8.4715e-05,-3.3018e-05,9.8749e-05,7.6226e-05,-4.0238e-05,2021-04-07 16:20:13.324000
-1.7454e-05,-4.0973e-05,7.2591e-05,5.2044e-05,-6.7717e-05,2021-04-07 16:20:13.326000
9.9104e-05,-3.9487e-05,4.0136e-05,9.6729e-06,-0.00010394,2021-04-07 16:20:13.328000
0.00019547,-3.4193e-05,1.5867e-05,-1.6661e-05,-0.0001348,2021-04-07 16:20:13.330000
0.00023534,-3.2317e-05,4.6275e-06,-2.8949e-05,-0.00014959,2021-04-07 16:20:13.332000
0.00021882,-2.5901e-05,1.4819e-05,-2.2425e-05,-0.00013937,2021-04-07 16:20:13.334000
0.00014178,-2.8082e-05,4.2846e-05,7.4035e-06,-0.00010977,2021-04-07 16:20:13.336000
4.129e-05,-3.057e-05,7.3026e-05,3.4282e-05,-7.8691e-05,2021-04-07 16:20:13.338000
-4.8013e-05,-2.8707e-05,0.00010265,6.2712e-05,-4.7815e-05,2021-04-07 16:20:13.340000
-0.0001077,-2.8334e-05,0.00012434,8.7278e-05,-2.6998e-05,2021-04-07 16:20:13.342000
-8.2331e-05,-2.186e-05,0.00012337,7.8957e-05,-3.7144e-05,2021-04-07 16:20:13.344000
5.56e-06,-2.3347e-05,9.5264e-05,4.7071e-05,-6.9045e-05,2021-04-07 16:20:13.346000
9.2442e-05,-2.2805e-05,6.406e-05,1.1075e-05,-0.00010218,2021-04-07 16:20:13.348000
0.00018521,-1.4219e-05,4.7775e-05,-2.1029e-05,-0.00013272,2021-04-07 16:20:13.350000
0.00024588,-2.0019e-05,3.2177e-05,-3.4417e-05,-0.00014771,2021-04-07 16:20:13.352000
0.00021843,-2.2237e-05,3.5636e-05,-2.011e-05,-0.00013496,2021-04-07 16:20:13.354000
0.00014084,-1.5558e-05,6.6016e-05,3.4441e-06,-0.00011039,2021-04-07 16:20:13.356000
6.0397e-05,-1.2949e-05,9.5751e-05,2.6842e-05,-8.2908e-05,2021-04-07 16:20:13.358000
-3.0359e-05,-8.7094e-06,0.00012744,6.1296e-05,-5.2445e-05,2021-04-07 16:20:13.360000
-9.32e-05,-7.6924e-06,0.00014753,8.267e-05,-3.818e-05,2021-04-07 16:20:13.362000
-5.6269e-05,-7.3393e-06,0.00013969,6.6595e-05,-4.9693e-05,2021-04-07 16:20:13.364000
3.1032e-05,-3.5727e-06,0.00011783,3.3501e-05,-7.6181e-05,2021-04-07 16:20:13.366000
0.00012163,-8.0823e-07,8.6874e-05,-4.3928e-07,-0.00010922,2021-04-07 16:20:13.368000
0.00022869,1.5584e-07,6.1318e-05,-2.966e-05,-0.00013648,2021-04-07 16:20:13.370000
0.0002697,-2.1113e-06,5.2699e-05,-3.7178e-05,-0.00014668,2021-04-07 16:20:13.372000
0.00023005,2.1572e-06,6.0103e-05,-2.6318e-05,-0.00013809,2021-04-07 16:20:13.374000
0.00016706,1.0742e-05,8.6073e-05,-7.2542e-06,-0.0001091,2021-04-07 16:20:13.376000
6.4811e-05,9.1976e-06,0.00012181,2.8178e-05,-7.5554e-05,2021-04-07 16:20:13.378000
-2.5493e-05,6.6238e-06,0.00015652,6.0592e-05,-5.2742e-05,2021-04-07 16:20:13.380000
-5.4234e-05,1.1106e-05,0.00017509,6.9845e-05,-3.6607e-05,2021-04-07 16:20:13.382000
-3.3655e-05,1.5404e-05,0.00016862,6.2908e-05,-4.4615e-05,2021-04-07 16:20:13.384000
5.0845e-05,1.5757e-05,0.00014316,3.4151e-05,-8.1449e-05,2021-04-07 16:20:13.386000
0.00016348,1.5046e-05,0.00010536,-5.6837e-06,-0.00011422,2021-04-07 16:20:13.388000
0.00025053,1.5789e-05,7.6579e-05,-3.3581e-05,-0.00013773,2021-04-07 16:20:13.390000
0.00029434,1.6755e-05,7.2762e-05,-4.7025e-05,-0.00015092,2021-04-07 16:20:13.392000
0.00027601,1.8079e-05,8.9464e-05,-4.103e-05,-0.0001369,2021-04-07 16:20:13.394000
0.00019768,1.8517e-05,0.00011656,-1.5042e-05,-0.00011024,2021-04-07 16:20:13.396000
0.00010352,2.1113e-05,0.00014375,1.9308e-05,-8.0557e-05,2021-04-07 16:20:13.398000
2.3543e-05,2.5424e-05,0.00016979,4.8542e-05,-4.9957e-05,2021-04-07 16:20:13.400000
-3.5657e-05,2.4986e-05,0.00018969,6.0549e-05,-3.7115e-05,2021-04-07 16:20:13.402000
-2.6171e-06,2.7978e-05,0.00018687,4.7803e-05,-4.6111e-05,2021-04-07 16:20:13.404000
9.9631e-05,3.3452e-05,0.00015963,1.4852e-05,-7.6383e-05,2021-04-07 16:20:13.406000
0.0001841,3.2486e-05,0.00013211,-1.8215e-05,-0.00011192,2021-04-07 16:20:13.408000
0.00028129,2.9803e-05,0.000109,-4.527e-05,-0.00013923,2021-04-07 16:20:13.410000
0.00032808,3.0962e-05,9.474e-05,-5.9719e-05,-0.00015346,2021-04-07 16:20:13.412000
0.00029772,3.7306e-05,0.00011287,-4.8353e-05,-0.00013445,2021-04-07 16:20:13.414000
0.00022212,3.9026e-05,0.00013876,-2.7801e-05,-0.00010712,2021-04-07 16:20:13.416000
0.00011106,3.5334e-05,0.0001653,2.2896e-06,-8.3243e-05,2021-04-07 16:20:13.418000
6.3002e-05,3.8185e-05,0.00020558,3.9555e-05,-4.6525e-05,2021-04-07 16:20:13.420000
-3.4215e-05,4.6233e-05,0.00021936,4.7812e-05,-3.0775e-05,2021-04-07 16:20:13.422000
-9.5587e-05,4.9161e-05,0.00020821,3.2182e-05,-4.5206e-05,2021-04-07 16:20:13.424000
9.0161e-05,4.346e-05,0.00018978,2.3813e-06,-7.4418e-05,2021-04-07 16:20:13.426000
0.00024196,4.3493e-05,0.00015375,-4.0311e-05,-0.0001102,2021-04-07 16:20:13.428000
0.00030056,4.7283e-05,0.00012811,-6.6062e-05,-0.00013404,2021-04-07 16:20:13.430000
0.0003655,4.31e-05,0.00012418,-7.432e-05,-0.00014274,2021-04-07 16:20:13.432000
0.00032409,4.7711e-05,0.00013552,-6.9419e-05,-0.00013186,2021-04-07 16:20:13.434000
0.00024198,5.7619e-05,0.00016886,-4.2898e-05,-0.00010509,2021-04-07 16:20:13.436000
0.00015765,5.5052e-05,0.00020355,-1.2818e-05,-7.4321e-05,2021-04-07 16:20:13.438000
7.7715e-05,5.3066e-05,0.00023044,1.079e-05,-4.3723e-05,2021-04-07 16:20:13.440000
5.1224e-05,5.785e-05,0.00025098,2.5808e-05,-3.0251e-05,2021-04-07 16:20:13.442000
7.1594e-05,6.0203e-05,0.00024455,1.442e-05,-4.0622e-05,2021-04-07 16:20:13.444000
0.00016272,6.1831e-05,0.00021625,-2.1425e-05,-6.7567e-05,2021-04-07 16:20:13.446000
0.00027881,5.8681e-05,0.00018734,-5.4657e-05,-0.00010187,2021-04-07 16:20:13.448000
0.00036295,5.2907e-05,0.00016127,-8.4284e-05,-0.00013094,2021-04-07 16:20:13.450000
0.00040445,6.0024e-05,0.00014945,-0.00010626,-0.00014573,2021-04-07 16:20:13.452000
0.0003733,6.2149e-05,0.00016472,-8.9809e-05,-0.00013215,2021-04-07 16:20:13.454000
0.00029068,5.4677e-05,0.00019484,-5.5474e-05,-9.6055e-05,2021-04-07 16:20:13.456000
0.00020285,5.8654e-05,0.00022323,-3.3679e-05,-6.4144e-05,2021-04-07 16:20:13.458000
0.0001236,5.8419e-05,0.00024877,-1.081e-05,-3.8918e-05,2021-04-07 16:20:13.460000
7.4264e-05,5.5814e-05,0.00026575,2.9703e-06,-2.249e-05,2021-04-07 16:20:13.462000
0.00010607,5.7668e-05,0.00025598,-1.3787e-05,-3.2046e-05,2021-04-07 16:20:13.464000
0.00021099,5.1355e-05,0.00022479,-4.5503e-05,-6.0999e-05,2021-04-07 16:20:13.466000
0.00030605,4.7333e-05,0.00019244,-7.8818e-05,-9.1185e-05,2021-04-07 16:20:13.468000
0.00037989,4.424e-05,0.00016013,-0.00011478,-0.00011715,2021-04-07 16:20:13.470000
0.00043183,4.2419e-05,0.00014925,-0.0001286,-0.00012649,2021-04-07 16:20:13.472000
0.00039367,4.173e-05,0.00017138,-0.00011374,-0.00010524,2021-04-07 16:20:13.474000
0.00029695,3.6808e-05,0.00019476,-8.735e-05,-7.4783e-05,2021-04-07 16:20:13.476000
0.00021195,3.8287e-05,0.00022036,-5.4313e-05,-4.8126e-05,2021-04-07 16:20:13.478000
0.00012551,3.4756e-05,0.0002479,-3.2096e-05,-1.1706e-05,2021-04-07 16:20:13.480000
8.3409e-05,3.0451e-05,0.00025432,-1.493e-05,-8.1024e-07,2021-04-07 16:20:13.482000
0.00013401,3.3893e-05,0.00024303,-1.5697e-05,-2.5337e-05,2021-04-07 16:20:13.484000
0.00021341,2.8068e-05,0.00020877,-6.2486e-05,-4.1757e-05,2021-04-07 16:20:13.486000
0.00029926,2.1609e-05,0.00016687,-0.00010901,-6.4697e-05,2021-04-07 16:20:13.488000
0.00038857,1.6673e-05,0.00014493,-0.00013122,-9.4987e-05,2021-04-07 16:20:13.490000
0.0004099,8.3039e-06,0.00013398,-0.00014031,-9.7482e-05,2021-04-07 16:20:13.492000
0.00036323,7.8479e-06,0.00014432,-0.00012481,-7.9542e-05,2021-04-07 16:20:13.494000
0.00028113,9.1735e-06,0.00017436,-9.2328e-05,-4.5392e-05,2021-04-07 16:20:13.496000
0.00016961,6.5813e-06,0.00019981,-6.3216e-05,-3.754e-06,2021-04-07 16:20:13.498000
8.2754e-05,4.9549e-06,0.00022267,-3.9334e-05,2.3476e-05,2021-04-07 16:20:13.500000
4.7493e-05,-1.107e-06,0.00022893,-1.8273e-05,3.7329e-05,2021-04-07 16:20:13.502000
7.0841e-05,-7.7561e-06,0.00020778,-3.0471e-05,2.6195e-05,2021-04-07 16:20:13.504000
0.00015589,-9.3636e-06,0.00017185,-6.8842e-05,-8.3624e-06,2021-04-07 16:20:13.506000
0.00024837,-1.6364e-05,0.00012951,-9.1308e-05,-3.4094e-05,2021-04-07 16:20:13.508000
0.00030863,-2.0971e-05,9.7483e-05,-0.00011197,-5.2057e-05,2021-04-07 16:20:13.510000
0.00032281,-2.0429e-05,8.2322e-05,-0.00012187,-6.1538e-05,2021-04-07 16:20:13.512000
0.00028115,-2.3395e-05,8.883e-05,-9.7211e-05,-4.0089e-05,2021-04-07 16:20:13.514000
0.00018803,-1.7653e-05,0.00011764,-6.2036e-05,-7.7412e-06,2021-04-07 16:20:13.516000
7.3056e-05,-1.5754e-05,0.00013709,-2.6525e-05,1.8014e-05,2021-04-07 16:20:13.518000
-2.3123e-05,-2.3735e-05,0.00014724,6.3208e-06,4.9821e-05,2021-04-07 16:20:13.520000
-7.9776e-05,-2.049e-05,0.00016175,2.1221e-05,6.6394e-05,2021-04-07 16:20:13.522000
-5.4469e-05,-1.885e-05,0.00014551,1.1805e-05,5.0141e-05,2021-04-07 16:20:13.524000
4.1513e-05,-2.4148e-05,9.9524e-05,-1.3169e-05,1.8777e-05,2021-04-07 16:20:13.526000
0.00012205,-2.5294e-05,6.2562e-05,-4.181e-05,-1.7516e-05,2021-04-07 16:20:13.528000
0.0001765,-2.8137e-05,3.1669e-05,-6.6811e-05,-4.6366e-05,2021-04-07 16:20:13.530000
0.00020392,-2.8853e-05,1.3959e-05,-6.8785e-05,-5.0159e-05,2021-04-07 16:20:13.532000
0.0001474,-2.3178e-05,2.6187e-05,-4.6293e-05,-2.9095e-05,2021-04-07 16:20:13.534000
3.6332e-05,-1.6754e-05,4.6847e-05,-1.8317e-05,-1.9793e-06,2021-04-07 16:20:13.536000
-6.208e-05,-1.4215e-05,7.0469e-05,1.6716e-05,2.3657e-05,2021-04-07 16:20:13.538000
-0.0001565,-1.626e-05,9.4528e-05,5.2074e-05,5.323e-05,2021-04-07 16:20:13.540000
-0.00019718,-1.6585e-05,9.645e-05,6.5396e-05,6.4135e-05,2021-04-07 16:20:13.542000
-0.00013388,-1.8362e-05,7.67e-05,4.955e-05,4.5341e-05,2021-04-07 16:20:13.544000
-5.8306e-05,-2.2606e-05,3.9257e-05,1.5541e-05,1.5409e-05,2021-04-07 16:20:13.546000
1.3058e-05,-1.7054e-05,-3.2681e-06,-1.4248e-05,-1.9522e-05,2021-04-07 16:20:13.548000
0.00010622,-1.1319e-05,-2.8184e-05,-3.3783e-05,-4.5733e-05,2021-04-07 16:20:13.550000
0.00012666,-1.4691e-05,-3.7136e-05,-4.1166e-05,-4.8241e-05,2021-04-07 16:20:13.552000
6.3625e-05,-1.4521e-05,-2.6857e-05,-2.1327e-05,-3.1886e-05,2021-04-07 16:20:13.554000
-2.8177e-05,-1.6214e-05,2.2491e-06,1.4723e-05,-4.4122e-06,2021-04-07 16:20:13.556000
-0.00013404,-2.0026e-05,2.7927e-05,4.5887e-05,2.6362e-05,2021-04-07 16:20:13.558000
-0.00021166,-1.4167e-05,4.7526e-05,6.9732e-05,5.1959e-05,2021-04-07 16:20:13.560000
-0.00024542,-1.1598e-05,5.9511e-05,8.1747e-05,6.4786e-05,2021-04-07 16:20:13.562000
-0.00021726,-1.5795e-05,4.3796e-05,7.0192e-05,5.2829e-05,2021-04-07 16:20:13.564000
-0.00011556,-1.6028e-05,7.4637e-06,3.5282e-05,1.3101e-05,2021-04-07 16:20:13.566000
-7.1848e-06,-1.6748e-05,-2.4682e-05,1.0899e-06,-2.4417e-05,2021-04-07 16:20:13.568000
5.7113e-05,-2.0761e-05,-4.6795e-05,-2.0096e-05,-4.1333e-05,2021-04-07 16:20:13.570000
7.4397e-05,-1.9207e-05,-5.6112e-05,-2.9513e-05,-5.0038e-05,2021-04-07 16:20:13.572000
3.8529e-05,-1.4058e-05,-4.3871e-05,-1.318e-05,-3.7054e-05,2021-04-07 16:20:13.574000
-5.3337e-05,-1.8346e-05,-1.3108e-05,2.0104e-05,-2.0809e-07,2021-04-07 16:20:13.576000
-0.00015508,-2.0064e-05,1.9488e-05,4.9175e-05,3.1825e-05,2021-04-07 16:20:13.578000
-0.00023276,-1.5279e-05,4.2843e-05,7.7197e-05,5.6388e-05,2021-04-07 16:20:13.580000
-0.00027777,-2.0399e-05,5.0982e-05,9.2656e-05,6.8594e-05,2021-04-07 16:20:13.582000
-0.00022495,-2.0367e-05,3.5783e-05,7.3545e-05,5.3031e-05,2021-04-07 16:20:13.584000
-0.00010205,-1.3491e-05,3.0382e-06,3.5233e-05,1.8416e-05,2021-04-07 16:20:13.586000
-1.2639e-05,-1.7797e-05,-3.0701e-05,4.3278e-06,-1.7811e-05,2021-04-07 16:20:13.588000
5.1455e-05,-2.2977e-05,-5.5969e-05,-1.9611e-05,-4.2286e-05,2021-04-07 16:20:13.590000
8.4662e-05,-1.8509e-05,-6.1605e-05,-2.7397e-05,-4.6589e-05,2021-04-07 16:20:13.592000
3.7493e-05,-9.597e-06,-4.2188e-05,-7.6284e-06,-2.7789e-05,2021-04-07 16:20:13.594000
-5.654e-05,-8.9043e-06,-1.6004e-05,1.9491e-05,6.9421e-07,2021-04-07 16:20:13.596000
-0.00015309,-1.2952e-05,1.1463e-05,4.9696e-05,2.5721e-05,2021-04-07 16:20:13.598000
-0.00024025,-8.2427e-06,4.1967e-05,7.8353e-05,5.2823e-05,2021-04-07 16:20:13.600000
-0.00026189,-5.4961e-06,4.965e-05,8.3508e-05,6.5486e-05,2021-04-07 16:20:13.602000
-0.00019403,-6.2402e-06,2.9376e-05,6.9502e-05,4.7064e-05,2021-04-07 16:20:13.604000
-0.00010298,-1.9017e-06,-3.507e-06,3.7528e-05,1.1648e-05,2021-04-07 16:20:13.606000
-1.1227e-05,-2.0481e-06,-4.1326e-05,-3.0882e-06,-2.4414e-05,2021-04-07 16:20:13.608000
7.5786e-05,-2.3555e-06,-6.3871e-05,-2.6103e-05,-4.3344e-05,2021-04-07 16:20:13.610000
9.4605e-05,1.2268e-06,-6.5175e-05,-2.9434e-05,-4.452e-05,2021-04-07 16:20:13.612000
3.5447e-05,-4.2598e-07,-5.0968e-05,-1.1484e-05,-3.29e-05,2021-04-07 16:20:13.614000
-5.6628e-05,1.4987e-06,-1.7841e-05,2.5768e-05,1.1015e-06,2021-04-07 16:20:13.616000
-0.00015384,2.7041e-06,1.7186e-05,6.1634e-05,3.7854e-05,2021-04-07 16:20:13.618000
-0.00022656,-5.5433e-07,3.6415e-05,8.2628e-05,5.6048e-05,2021-04-07 16:20:13.620000
-0.00024255,7.0856e-06,4.5245e-05,8.6547e-05,6.6391e-05,2021-04-07 16:20:13.622000
-0.00019181,9.5651e-06,3.59e-05,6.5092e-05,5.394e-05,2021-04-07 16:20:13.624000
-9.378e-05,2.81e-06,-1.0072e-06,2.5427e-05,1.1615e-05,2021-04-07 16:20:13.626000
1.1237e-05,5.5629e-06,-3.6689e-05,-1.6791e-06,-1.6729e-05,2021-04-07 16:20:13.628000
7.6272e-05,5.0793e-06,-5.5468e-05,-1.935e-05,-3.2899e-05,2021-04-07 16:20:13.630000
8.7522e-05,2.3842e-07,-6.3831e-05,-3.0514e-05,-4.7761e-05,2021-04-07 16:20:13.632000
5.0296e-05,3.4958e-06,-4.6268e-05,-1.0431e-05,-2.6139e-05,2021-04-07 16:20:13.634000
-4.3074e-05,5.101e-06,-1.1157e-05,2.5436e-05,1.0657e-05,2021-04-07 16:20:13.636000
-0.00014224,6.722e-06,2.0474e-05,5.3597e-05,3.612e-05,2021-04-07 16:20:13.638000
-0.0002031,1.1366e-05,4.7317e-05,7.8181e-05,6.1619e-05,2021-04-07 16:20:13.640000
-0.00023636,8.5825e-06,5.5552e-05,8.9992e-05,6.9194e-05,2021-04-07 16:20:13.642000
-0.00019151,5.6773e-06,3.4987e-05,7.0054e-05,4.8304e-05,2021-04-07 16:20:13.644000
-7.1082e-05,6.5237e-06,2.9071e-07,3.1353e-05,1.2856e-05,2021-04-07 16:20:13.646000
2.5737e-05,4.9237e-06,-2.896e-05,1.9083e-06,-1.929e-05,2021-04-07 16:20:13.648000
8.3495e-05,3.123e-06,-5.3907e-05,-2.1671e-05,-4.1119e-05,2021-04-07 16:20:13.650000
0.00010776,1.2484e-06,-5.9444e-05,-2.6736e-05,-4.6019e-05,2021-04-07 16:20:13.652000
5.0458e-05,1.7435e-06,-3.1381e-05,1.2218e-06,-2.1927e-05,2021-04-07 16:20:13.654000
-5.3352e-05,4.86e-06,-4.2814e-06,2.5333e-05,8.8943e-06,2021-04-07 16:20:13.656000
-0.0001313,7.3364e-06,1.8629e-05,4.7517e-05,3.5174e-05,2021-04-07 16:20:13.658000
-0.00020435,7.9586e-06,4.5026e-05,8.0526e-05,6.2473e-05,2021-04-07 16:20:13.660000
-0.00023698,5.2762e-06,5.0182e-05,8.3986e-05,6.7407e-05,2021-04-07 16:20:13.662000
-0.00016569,2.0296e-06,3.2704e-05,6.0168e-05,4.6369e-05,2021-04-07 16:20:13.664000
-7.08e-05,4.4135e-07,-2.0842e-06,2.9149e-05,1.1337e-05,2021-04-07 16:20:13.666000
1.1656e-05,5.8126e-07,-3.7273e-05,-9.2657e-06,-2.7143e-05,2021-04-07 16:20:13.668000
9.1237e-05,4.0753e-07,-5.246e-05,-2.7568e-05,-4.5223e-05,2021-04-07 16:20:13.670000
9.6668e-05,6.8587e-07,-5.3049e-05,-2.2129e-05,-4.3914e-05,2021-04-07 16:20:13.672000
2.9285e-05,2.1136e-06,-3.4548e-05,-7.051e-06,-2.6554e-05,2021-04-07 16:20:13.674000
-6.0769e-05,1.2157e-06,2.7479e-06,2.9199e-05,1.3033e-05,2021-04-07 16:20:13.676000
-0.00016074,-6.1294e-07,3.8211e-05,6.8036e-05,4.5951e-05,2021-04-07 16:20:13.678000
-0.00023813,-2.4979e-06,5.8881e-05,8.3401e-05,5.9884e-05,2021-04-07 16:20:13.680000
-0.00025129,-1.4657e-06,5.9717e-05,8.4506e-05,6.6905e-05,2021-04-07 16:20:13.682000
-0.00019354,5.852e-07,4.0377e-05,6.6175e-05,4.7503e-05,2021-04-07 16:20:13.684000
-9.392e-05,-4.8558e-06,9.2307e-06,3.1418e-05,7.5296e-06,2021-04-07 16:20:13.686000
7.9583e-06,-8.4013e-06,-2.0389e-05,5.5537e-06,-1.8561e-05,2021-04-07 16:20:13.688000
6.9281e-05,-3.3208e-06,-4.0054e-05,-1.3861e-05,-3.4249e-05,2021-04-07 16:20:13.690000
7.4472e-05,-2.5939e-06,-4.5797e-05,-1.9332e-05,-3.8459e-05,2021-04-07 16:20:13.692000
2.0572e-05,-7.9417e-06,-2.8177e-05,3.377e-06,-1.5158e-05,2021-04-07 16:20:13.694000
-8.3024e-05,-7.1823e-06,8.8473e-06,3.6396e-05,1.9359e-05,2021-04-07 16:20:13.696000
-0.00017505,-1.2195e-06,4.0051e-05,6.619e-05,4.9082e-05,2021-04-07 16:20:13.698000
-0.00023367,-1.0795e-07,5.7978e-05,8.7786e-05,7.3155e-05,2021-04-07 16:20:13.700000
-0.00025509,-1.3596e-06,6.4011e-05,9.4285e-05,7.348e-05,2021-04-07 16:20:13.702000
-0.00020033,-2.2696e-06,4.3706e-05,7.5978e-05,4.6344e-05,2021-04-07 16:20:13.704000
-8.9893e-05,-4.7844e-06,7.6811e-06,3.7337e-05,1.662e-05,2021-04-07 16:20:13.706000
1.2889e-05,-3.621e-06,-2.1099e-05,4.7451e-06,-1.0261e-05,2021-04-07 16:20:13.708000
7.0546e-05,-5.3424e-06,-4.3837e-05,-1.4749e-05,-3.1173e-05,2021-04-07 16:20:13.710000
7.678e-05,-1.2474e-05,-4.8842e-05,-1.6408e-05,-2.9705e-05,2021-04-07 16:20:13.712000
1.6552e-05,-9.7981e-06,-2.484e-05,7.3971e-06,-9.9823e-06,2021-04-07 16:20:13.714000
-8.7501e-05,-4.3085e-06,5.2784e-06,3.8038e-05,1.9972e-05,2021-04-07 16:20:13.716000
-0.00017345,-5.7078e-06,3.0784e-05,6.6229e-05,5.434e-05,2021-04-07 16:20:13.718000
-0.00025062,-6.4415e-06,5.5838e-05,9.1133e-05,7.559e-05,2021-04-07 16:20:13.720000
-0.00027181,-7.1443e-06,5.8478e-05,9.4724e-05,7.3592e-05,2021-04-07 16:20:13.722000
-0.00019091,-6.5702e-06,3.3106e-05,7.2119e-05,5.3982e-05,2021-04-07 16:20:13.724000
-9.9138e-05,-7.0426e-06,3.049e-06,3.7944e-05,2.3286e-05,2021-04-07 16:20:13.726000
-1.0512e-05,-1.213e-05,-2.9159e-05,1.8162e-06,-1.4419e-05,2021-04-07 16:20:13.728000
6.2326e-05,-1.0819e-05,-5.0794e-05,-1.8418e-05,-3.4421e-05,2021-04-07 16:20:13.730000
5.1285e-05,-6.5771e-06,-4.5076e-05,-9.7983e-06,-2.3896e-05,2021-04-07 16:20:13.732000
-8.7933e-06,-9.1398e-06,-2.6556e-05,8.2842e-06,-4.4448e-06,2021-04-07 16:20:13.734000
-9.5976e-05,-1.1226e-05,4.0558e-06,3.5798e-05,2.6478e-05,2021-04-07 16:20:13.736000
-0.00019901,-8.7817e-06,3.9478e-05,7.4225e-05,6.4582e-05,2021-04-07 16:20:13.738000
-0.00026299,-8.1248e-06,5.5098e-05,9.2809e-05,8.1055e-05,2021-04-07 16:20:13.740000
-0.00026434,-7.5685e-06,5.3888e-05,9.3625e-05,8.2025e-05,2021-04-07 16:20:13.742000
-0.00020332,-3.436e-06,3.4405e-05,7.4761e-05,6.44e-05,2021-04-07 16:20:13.744000
-0.00010387,-7.4465e-06,-3.6809e-06,3.1037e-05,2.2151e-05,2021-04-07 16:20:13.746000
-7.2869e-06,-1.4243e-05,-3.2446e-05,1.8557e-06,-9.3876e-06,2021-04-07 16:20:13.748000
4.7259e-05,-1.3178e-05,-4.5751e-05,-1.1241e-05,-2.3724e-05,2021-04-07 16:20:13.750000
4.7623e-05,-1.206e-05,-4.649e-05,-1.7817e-05,-2.4363e-05,2021-04-07 16:20:13.752000
-9.1907e-06,-6.9691e-06,-2.6229e-05,3.0648e-06,4.8122e-06,2021-04-07 16:20:13.754000
-0.00011201,-5.9109e-06,1.3474e-06,4.0844e-05,3.689e-05,2021-04-07 16:20:13.756000
-0.00019754,-1.2346e-05,3.1881e-05,7.0029e-05,5.9823e-05,2021-04-07 16:20:13.758000
-0.00024936,-1.1311e-05,5.5984e-05,8.6101e-05,8.7133e-05,2021-04-07 16:20:13.760000
-0.00026229,-8.479e-06,5.1656e-05,9.061e-05,8.4651e-05,2021-04-07 16:20:13.762000
-0.00019328,-5.617e-06,2.9178e-05,6.7015e-05,5.1259e-05,2021-04-07 16:20:13.764000
-7.7131e-05,-4.4257e-06,-7.3176e-06,2.4797e-05,1.9092e-05,2021-04-07 16:20:13.766000
2.2803e-05,-1.0174e-05,-4.5981e-05,-7.216e-06,-1.6173e-05,2021-04-07 16:20:13.768000
7.1232e-05,-1.4723e-05,-6.353e-05,-2.8719e-05,-3.4592e-05,2021-04-07 16:20:13.770000
6.1488e-05,-1.2932e-05,-5.7448e-05,-2.0238e-05,-2.0827e-05,2021-04-07 16:20:13.772000
3.6418e-06,-1.0642e-05,-2.8937e-05,9.9867e-06,2.9535e-06,2021-04-07 16:20:13.774000
-9.9207e-05,-1.4494e-05,-1.9321e-07,3.3325e-05,3.5403e-05,2021-04-07 16:20:13.776000
-0.00019673,-1.1821e-05,2.5149e-05,6.5897e-05,7.0861e-05,2021-04-07 16:20:13.778000
-0.00025597,-5.4161e-06,5.3489e-05,8.9857e-05,9.1408e-05,2021-04-07 16:20:13.780000
-0.00025902,-1.0528e-05,5.4675e-05,8.2983e-05,8.9619e-05,2021-04-07 16:20:13.782000
-0.00018257,-1.3399e-05,2.8043e-05,5.527e-05,6.3751e-05,2021-04-07 16:20:13.784000
-8.6576e-05,-8.9138e-06,-6.2003e-06,1.858e-05,2.8632e-05,2021-04-07 16:20:13.786000
-1.3281e-06,-9.0679e-06,-4.139e-05,-8.7316e-06,-3.145e-06,2021-04-07 16:20:13.788000
6.8619e-05,-1.5185e-05,-5.8717e-05,-2.679e-05,-2.3708e-05,2021-04-07 16:20:13.790000
6.281e-05,-1.3422e-05,-4.9288e-05,-2.5287e-05,-2.1204e-05,2021-04-07 16:20:13.792000
-1.0803e-05,-4.7921e-06,-2.6508e-05,8.7785e-07,1.0603e-06,2021-04-07 16:20:13.794000
-0.00010639,-5.2903e-06,2.124e-06,3.2938e-05,3.4932e-05,2021-04-07 16:20:13.796000
-0.00020428,-5.1963e-06,3.2779e-05,6.381e-05,6.8241e-05,2021-04-07 16:20:13.798000
-0.00025631,-2.6319e-06,5.0907e-05,8.1005e-05,8.6553e-05,2021-04-07 16:20:13.800000
-0.00024443,-6.1567e-06,5.0787e-05,8.2776e-05,8.6929e-05,2021-04-07 16:20:13.802000
-0.00019207,-9.6749e-06,3.1843e-05,6.2181e-05,6.2363e-05,2021-04-07 16:20:13.804000
-9.3755e-05,-1.1644e-05,-5.5383e-06,1.8266e-05,1.9227e-05,2021-04-07 16:20:13.806000
1.2339e-05,-1.098e-05,-3.7116e-05,-1.0705e-05,-1.2399e-05,2021-04-07 16:20:13.808000
5.6844e-05,-1.5505e-05,-5.2503e-05,-2.2449e-05,-2.391e-05,2021-04-07 16:20:13.810000
5.0563e-05,-1.9965e-05,-5.5393e-05,-2.6184e-05,-2.2071e-05,2021-04-07 16:20:13.812000
-7.4687e-06,-1.194e-05,-3.0684e-05,-2.001e-06,7.0297e-07,2021-04-07 16:20:13.814000
-0.00011792,-9.8911e-06,5.9814e-06,3.5473e-05,3.5349e-05,2021-04-07 16:20:13.816000
-0.00020468,-1.1687e-05,3.0086e-05,6.1809e-05,6.3475e-05,2021-04-07 16:20:13.818000
-0.00025464,-7.7747e-06,4.7196e-05,7.8778e-05,8.5783e-05,2021-04-07 16:20:13.820000
-0.00026269,-9.7829e-06,4.6188e-05,7.8271e-05,8.3174e-05,2021-04-07 16:20:13.822000
-0.00018461,-1.2563e-05,2.0209e-05,5.5411e-05,4.9142e-05,2021-04-07 16:20:13.824000
-7.4745e-05,-1.1582e-05,-1.1947e-05,2.2701e-05,1.8398e-05,2021-04-07 16:20:13.826000
1.6102e-05,-1.0429e-05,-4.3299e-05,-1.4495e-05,-1.0386e-05,2021-04-07 16:20:13.828000
7.5895e-05,-1.4756e-05,-6.6128e-05,-3.5944e-05,-3.5778e-05,2021-04-07 16:20:13.830000
6.4126e-05,-1.9208e-05,-5.9464e-05,-2.5187e-05,-2.5043e-05,2021-04-07 16:20:13.832000
-9.3614e-06,-9.5068e-06,-2.9502e-05,-1.5063e-07,7.6975e-06,2021-04-07 16:20:13.834000
-0.00010042,-1.9615e-06,-4.1114e-06,2.8639e-05,3.9086e-05,2021-04-07 16:20:13.836000
-0.0001876,-4.0594e-06,1.8461e-05,5.712e-05,6.7264e-05,2021-04-07 16:20:13.838000
-0.00025323,-1.7711e-06,4.3717e-05,7.5771e-05,8.2944e-05,2021-04-07 16:20:13.840000
-0.00024926,-5.0679e-06,4.3348e-05,7.1284e-05,8.0482e-05,2021-04-07 16:20:13.842000
-0.00016675,-1.4415e-05,1.2002e-05,4.4748e-05,5.9411e-05,2021-04-07 16:20:13.844000
-7.2927e-05,-1.1898e-05,-2.0035e-05,1.4849e-05,2.4472e-05,2021-04-07 16:20:13.846000
1.5007e-05,-8.8313e-06,-4.9905e-05,-1.9926e-05,-1.0754e-05,2021-04-07 16:20:13.848000
7.7733e-05,-1.3312e-05,-6.981e-05,-3.8796e-05,-2.4373e-05,2021-04-07 16:20:13.850000
5.4813e-05,-9.7862e-06,-5.5612e-05,-2.5298e-05,-1.7092e-05,2021-04-07 16:20:13.852000
-2.2217e-05,-7.8847e-06,-3.0226e-05,-4.6494e-06,-8.8677e-07,2021-04-07 16:20:13.854000
-0.00010665,-9.7536e-06,-6.7888e-06,2.2987e-05,3.4373e-05,2021-04-07 16:20:13.856000
-0.00020154,-7.2423e-06,2.5442e-05,5.3134e-05,6.8727e-05,2021-04-07 16:20:13.858000
-0.00025951,-1.3051e-05,4.4477e-05,7.2725e-05,8.0339e-05,2021-04-07 16:20:13.860000
-0.00023502,-1.2048e-05,3.8526e-05,7.2941e-05,7.82e-05,2021-04-07 16:20:13.862000
-0.00016516,-5.3428e-06,1.4398e-05,4.1125e-05,5.2782e-05,2021-04-07 16:20:13.864000
-7.4105e-05,-1.1996e-05,-2.004e-05,2.7551e-06,1.0529e-05,2021-04-07 16:20:13.866000
2.9234e-05,-1.1379e-05,-5.0002e-05,-2.3646e-05,-1.9436e-05,2021-04-07 16:20:13.868000
7.962e-05,-1.0769e-05,-6.7594e-05,-3.849e-05,-2.9864e-05,2021-04-07 16:20:13.870000
5.4018e-05,-1.774e-05,-6.5382e-05,-3.2872e-05,-2.3635e-05,2021-04-07 16:20:13.872000
-1.4389e-05,-1.2196e-05,-3.8501e-05,-7.9362e-06,1.4981e-06,2021-04-07 16:20:13.874000
-0.00010968,-7.1475e-06,-2.2633e-07,2.5813e-05,3.6022e-05,2021-04-07 16:20:13.876000
-0.00019928,-9.2254e-06,2.5964e-05,5.1256e-05,6.2782e-05,2021-04-07 16:20:13.878000
-0.00024614,-1.2619e-05,3.6558e-05,6.8881e-05,8.0833e-05,2021-04-07 16:20:13.880000
-0.00023487,-1.5929e-05,3.8103e-05,6.7778e-05,7.6094e-05,2021-04-07 16:20:13.882000
-0.00015819,-1.2895e-05,1.3887e-05,3.1911e-05,4.1485e-05,2021-04-07 16:20:13.884000
-4.6593e-05,-1.3986e-05,-2.9058e-05,-1.6969e-06,9.7075e-06,2021-04-07 16:20:13.886000
4.1378e-05,-1.6673e-05,-5.4707e-05,-2.0791e-05,-1.2633e-05,2021-04-07 16:20:13.888000
8.4621e-05,-1.2129e-05,-6.3728e-05,-3.9167e-05,-3.2024e-05,2021-04-07 16:20:13.890000
7.2174e-05,-1.3711e-05,-6.0869e-05,-3.4135e-05,-2.5251e-05,2021-04-07 16:20:13.892000
-1.1523e-05,-1.6823e-05,-3.4522e-05,-4.5359e-06,8.3738e-06,2021-04-07 16:20:13.894000
-0.00011686,-1.3974e-05,1.9114e-06,2.9264e-05,4.1035e-05,2021-04-07 16:20:13.896000
-0.00020138,-1.4734e-05,3.1509e-05,5.9689e-05,6.6201e-05,2021-04-07 16:20:13.898000
-0.00025454,-1.3299e-05,4.5282e-05,7.289e-05,8.3447e-05,2021-04-07 16:20:13.900000
-0.00022917,-8.6517e-06,3.5316e-05,6.2543e-05,7.4431e-05,2021-04-07 16:20:13.902000
-0.00014057,-9.8876e-06,7.5432e-06,4.0157e-05,4.4666e-05,2021-04-07 16:20:13.904000
-4.8075e-05,-1.2262e-05,-2.6945e-05,8.0518e-06,1.3828e-05,2021-04-07 16:20:13.906000
4.1837e-05,-1.4313e-05,-5.4479e-05,-2.7415e-05,-1.4003e-05,2021-04-07 16:20:13.908000
9.4193e-05,-1.2049e-05,-6.337e-05,-3.9099e-05,-2.6507e-05,2021-04-07 16:20:13.910000
6.3702e-05,-7.0107e-06,-5.2471e-05,-2.4928e-05,-1.7013e-05,2021-04-07 16:20:13.912000
-1.294e-05,-8.5558e-06,-3.0854e-05,-3.4295e-06,4.5639e-06,2021-04-07 16:20:13.914000
-9.9486e-05,-7.467e-06,-5.9493e-06,2.7631e-05,3.1761e-05,2021-04-07 16:20:13.916000
-0.00019733,-6.8296e-06,2.6384e-05,6.0517e-05,6.2621e-05,2021-04-07 16:20:13.918000
-0.00025038,-9.2739e-06,4.6617e-05,7.2754e-05,8.2341e-05,2021-04-07 16:20:13.920000
-0.00021856,-6.1197e-06,3.2207e-05,6.3711e-05,7.265e-05,2021-04-07 16:20:13.922000
-0.00014715,-6.8797e-06,4.5555e-06,4.0135e-05,4.4908e-05,2021-04-07 16:20:13.924000
-5.5042e-05,-1.0442e-05,-2.2903e-05,5.9132e-06,1.2596e-05,2021-04-07 16:20:13.926000
4.2725e-05,-1.1356e-05,-4.9547e-05,-2.2043e-05,-1.9364e-05,2021-04-07 16:20:13.928000
8.6635e-05,-1.1972e-05,-5.8852e-05,-3.1039e-05,-3.2106e-05,2021-04-07 16:20:13.930000
6.1618e-05,-1.1318e-05,-5.1974e-05,-2.4754e-05,-2.1152e-05,2021-04-07 16:20:13.932000
-9.8915e-06,-9.8409e-06,-3.2775e-05,-4.2673e-06,3.6975e-06,2021-04-07 16:20:13.934000
-0.00010756,-6.6654e-06,-6.1779e-07,2.79e-05,3.4134e-05,2021-04-07 16:20:13.936000
-0.00018877,-5.7701e-06,3.0031e-05,6.1591e-05,6.3422e-05,2021-04-07 16:20:13.938000
-0.00023053,-5.0735e-06,4.8642e-05,8.1147e-05,8.2433e-05,2021-04-07 16:20:13.940000
-0.00021949,-3.3919e-06,4.1344e-05,6.7119e-05,6.9257e-05,2021-04-07 16:20:13.942000
-0.0001326,-6.58e-06,9.2722e-06,3.3441e-05,3.5256e-05,2021-04-07 16:20:13.944000
-1.9793e-05,-1.1015e-05,-2.3388e-05,4.4983e-06,8.7898e-06,2021-04-07 16:20:13.946000
6.2432e-05,-1.2222e-05,-5.3503e-05,-2.4695e-05,-2.1038e-05,2021-04-07 16:20:13.948000
0.00010893,-8.1389e-06,-6.9624e-05,-4.034e-05,-4.1022e-05,2021-04-07 16:20:13.950000
8.9934e-05,-5.3823e-06,-5.3522e-05,-2.7554e-05,-2.4063e-05,2021-04-07 16:20:13.952000
5.3994e-06,-5.942e-06,-2.3603e-05,-8.6006e-07,7.5845e-06,2021-04-07 16:20:13.954000
-8.9185e-05,-5.7727e-06,6.1315e-06,3.1209e-05,3.6599e-05,2021-04-07 16:20:13.956000
-0.00017099,-6.809e-06,3.374e-05,6.2156e-05,6.5415e-05,2021-04-07 16:20:13.958000
-0.00022453,-9.9891e-07,4.7011e-05,7.8841e-05,8.1128e-05,2021-04-07 16:20:13.960000
-0.00019764,2.4657e-06,3.9604e-05,6.7372e-05,7.1338e-05,2021-04-07 16:20:13.962000
-9.9589e-05,-4.2132e-06,1.3646e-05,3.602e-05,4.1405e-05,2021-04-07 16:20:13.964000
1.1373e-06,-4.0662e-06,-1.9922e-05,4.5795e-06,5.2199e-06,2021-04-07 16:20:13.966000
8.794e-05,-2.06e-06,-4.8519e-05,-2.5505e-05,-2.3518e-05,2021-04-07 16:20:13.968000
0.00013382,-2.5802e-06,-6.0548e-05,-3.5109e-05,-3.3509e-05,2021-04-07 16:20:13.970000
9.5612e-05,1.5409e-06,-4.7201e-05,-1.7636e-05,-2.2769e-05,2021-04-07 16:20:13.972000
1.6974e-05,2.9164e-06,-2.2543e-05,1.4233e-06,3.4194e-06,2021-04-07 16:20:13.974000
-6.352e-05,-6.0266e-07,1.3836e-06,2.6522e-05,3.5866e-05,2021-04-07 16:20:13.976000
-0.00015878,-1.8884e-06,2.9349e-05,5.7583e-05,6.2616e-05,2021-04-07 16:20:13.978000
-0.00021241,-8.8834e-07,4.6118e-05,7.3527e-05,7.3809e-05,2021-04-07 16:20:13.980000
-0.00017375,-3.9214e-06,3.4507e-05,6.5931e-05,6.5228e-05,2021-04-07 16:20:13.982000
-9.6054e-05,-5.9517e-06,6.1541e-06,3.2967e-05,3.8515e-05,2021-04-07 16:20:13.984000
-4.2376e-06,-3.1257e-06,-2.6076e-05,-4.937e-06,-9.6286e-07,2021-04-07 16:20:13.986000
9.1751e-05,-6.766e-06,-5.4084e-05,-3.0438e-05,-3.2323e-05,2021-04-07 16:20:13.988000
0.00012715,-1.1994e-05,-6.5115e-05,-4.3226e-05,-3.996e-05,2021-04-07 16:20:13.990000
9.7112e-05,-7.7347e-06,-5.3707e-05,-3.5565e-05,-3.2514e-05,2021-04-07 16:20:13.992000
2.3972e-05,-5.7972e-06,-2.5889e-05,-9.561e-06,-6.8685e-06,2021-04-07 16:20:13.994000
-8.528e-05,-1.0549e-05,4.4047e-06,2.5046e-05,3.1336e-05,2021-04-07 16:20:13.996000
-0.00016559,-7.51e-06,3.0896e-05,5.3882e-05,5.6882e-05,2021-04-07 16:20:13.998000
-0.00018789,-2.5494e-07,4.8138e-05,6.6718e-05,7.0821e-05,2021-04-07 16:20:14
-0.00016524,1.7368e-06,3.978e-05,5.8581e-05,6.3814e-05,2021-04-07 16:20:14.002000
-7.2572e-05,5.1562e-06,9.6199e-06,2.6699e-05,2.5141e-05,2021-04-07 16:20:14.004000
4.4275e-05,6.0505e-06,-2.3442e-05,-6.3143e-06,-1.008e-05,2021-04-07 16:20:14.006000
0.00012054,2.6531e-06,-5.2586e-05,-3.2169e-05,-3.229e-05,2021-04-07 16:20:14.008000
0.00015693,4.5425e-07,-6.4399e-05,-4.5879e-05,-5.0607e-05,2021-04-07 16:20:14.010000
0.0001155,-1.768e-06,-4.9283e-05,-2.8321e-05,-4.0263e-05,2021-04-07 16:20:14.012000
2.2484e-05,1.2455e-06,-2.3952e-05,-2.6812e-06,-6.0058e-06,2021-04-07 16:20:14.014000
-4.354e-05,3.9416e-06,2.3708e-06,1.8068e-05,2.14e-05,2021-04-07 16:20:14.016000
-0.00011773,3.771e-06,2.9235e-05,4.7168e-05,4.695e-05,2021-04-07 16:20:14.018000
-0.00018188,3.797e-06,4.3926e-05,6.5851e-05,6.6824e-05,2021-04-07 16:20:14.020000
-0.00014835,-3.018e-07,3.5495e-05,5.4702e-05,5.419e-05,2021-04-07 16:20:14.022000
-4.5745e-05,1.0878e-06,5.5392e-06,2.1582e-05,2.3111e-05,2021-04-07 16:20:14.024000
5.7142e-05,1.4409e-06,-2.772e-05,-1.3932e-05,-1.0747e-05,2021-04-07 16:20:14.026000
0.00013765,-2.1269e-06,-5.4793e-05,-4.223e-05,-4.3098e-05,2021-04-07 16:20:14.028000
0.00017526,3.0591e-06,-6.7421e-05,-5.3588e-05,-4.9915e-05,2021-04-07 16:20:14.030000
0.00014093,4.3389e-06,-5.0482e-05,-3.6748e-05,-3.6395e-05,2021-04-07 16:20:14.032000
5.7488e-05,2.1419e-06,-2.3889e-05,-8.476e-06,-7.1549e-06,2021-04-07 16:20:14.034000
-2.8341e-05,4.4704e-06,3.0035e-06,1.9975e-05,2.9767e-05,2021-04-07 16:20:14.036000
-0.00011623,4.2737e-06,3.3286e-05,5.0831e-05,4.9369e-05,2021-04-07 16:20:14.038000
-0.00015811,2.5614e-06,4.2648e-05,6.3806e-05,5.9451e-05,2021-04-07 16:20:14.040000
-0.00010704,2.9865e-06,3.1408e-05,4.6943e-05,4.8584e-05,2021-04-07 16:20:14.042000
-2.4356e-05,5.2954e-06,3.2648e-06,1.424e-05,1.3254e-05,2021-04-07 16:20:14.044000
6.4772e-05,2.4335e-06,-3.7888e-05,-2.0322e-05,-2.08e-05,2021-04-07 16:20:14.046000
0.00015835,-3.0971e-06,-6.131e-05,-4.6159e-05,-4.7872e-05,2021-04-07 16:20:14.048000
0.00019779,-2.4454e-06,-6.7135e-05,-5.4538e-05,-5.5212e-05,2021-04-07 16:20:14.050000
0.00016461,-4.5267e-07,-5.9631e-05,-4.495e-05,-4.4468e-05,2021-04-07 16:20:14.052000
7.9948e-05,1.1398e-06,-2.5907e-05,-1.8211e-05,-1.7928e-05,2021-04-07 16:20:14.054000
-1.944e-05,4.0801e-06,9.6873e-06,1.7818e-05,2.2051e-05,2021-04-07 16:20:14.056000
-9.4843e-05,4.9619e-06,2.8538e-05,4.4674e-05,4.5719e-05,2021-04-07 16:20:14.058000
-0.00012776,3.9977e-06,4.2877e-05,5.7098e-05,5.3397e-05,2021-04-07 16:20:14.060000
-9.4321e-05,3.8599e-06,3.3752e-05,4.3363e-05,4.2105e-05,2021-04-07 16:20:14.062000
7.3366e-07,9.0145e-07,-4.8586e-06,1.7969e-06,4e-06,2021-04-07 16:20:14.064000
0.00010715,-3.5646e-06,-3.3644e-05,-2.7359e-05,-3.0547e-05,2021-04-07 16:20:14.066000
0.00018262,-3.605e-06,-5.4444e-05,-4.3006e-05,-5.3124e-05,2021-04-07 16:20:14.068000
0.00021547,-2.9233e-06,-7.1478e-05,-5.9542e-05,-6.497e-05,2021-04-07 16:20:14.070000
0.00017543,-2.1126e-06,-5.6295e-05,-4.7523e-05,-5.0661e-05,2021-04-07 16:20:14.072000
7.4515e-05,-3.7499e-07,-2.449e-05,-1.2886e-05,-1.9189e-05,2021-04-07 16:20:14.074000
7.0813e-07,1.8449e-06,4.4183e-06,1.4593e-05,1.0746e-05,2021-04-07 16:20:14.076000
-5.7078e-05,3.9594e-06,3.0939e-05,3.4296e-05,3.7179e-05,2021-04-07 16:20:14.078000
-0.00010821,1.7968e-06,4.0224e-05,4.7213e-05,4.7217e-05,2021-04-07 16:20:14.080000
-6.7209e-05,3.4159e-06,2.7978e-05,3.6561e-05,3.0468e-05,2021-04-07 16:20:14.082000
3.7717e-05,8.8779e-06,-6.012e-07,-1.9078e-07,4.2386e-06,2021-04-07 16:20:14.084000
0.00013762,5.0624e-06,-3.5797e-05,-3.5781e-05,-2.9416e-05,2021-04-07 16:20:14.086000
0.00022228,3.8834e-07,-6.4179e-05,-6.2195e-05,-6.2292e-05,2021-04-07 16:20:14.088000
0.00025407,7.8446e-07,-7.3537e-05,-6.8867e-05,-6.9732e-05,2021-04-07 16:20:14.090000
0.00020704,-2.5136e-06,-5.5199e-05,-4.7964e-05,-5.577e-05,2021-04-07 16:20:14.092000
0.00011952,-2.3293e-06,-2.7786e-05,-2.8266e-05,-2.6049e-05,2021-04-07 16:20:14.094000
3.9481e-05,1.1833e-06,-4.6825e-06,-5.8176e-06,6.4553e-06,2021-04-07 16:20:14.096000
-3.5445e-05,2.7405e-06,1.9735e-05,2.3415e-05,2.4922e-05,2021-04-07 16:20:14.098000
-6.749e-05,1.027e-05,3.1528e-05,3.5745e-05,3.2846e-05,2021-04-07 16:20:14.100000
-9.8595e-06,8.1664e-06,1.9609e-05,2.6111e-05,2.1224e-05,2021-04-07 16:20:14.102000
7.3218e-05,-3.2654e-06,-1.058e-05,-9.1583e-06,-1.3258e-05,2021-04-07 16:20:14.104000
0.000162,-4.5277e-07,-4.6596e-05,-4.7362e-05,-5.0147e-05,2021-04-07 16:20:14.106000
0.00025943,4.9723e-07,-6.8054e-05,-6.6637e-05,-7.2755e-05,2021-04-07 16:20:14.108000
0.0002867,-3.9015e-06,-7.0385e-05,-7.7285e-05,-7.8729e-05,2021-04-07 16:20:14.110000
0.00023944,-2.0345e-06,-5.8928e-05,-6.6769e-05,-6.5477e-05,2021-04-07 16:20:14.112000
0.00015894,-4.5467e-06,-3.5268e-05,-3.6073e-05,-3.4516e-05,2021-04-07 16:20:14.114000
6.3024e-05,-3.33e-06,-9.0551e-06,-1.0162e-05,-7.6979e-06,2021-04-07 16:20:14.116000
-9.6159e-06,1.7068e-06,1.3363e-05,1.3502e-05,1.2452e-05,2021-04-07 16:20:14.118000
-3.3128e-05,1.397e-06,2.4844e-05,2.9565e-05,2.7981e-05,2021-04-07 16:20:14.120000
6.0579e-06,2.4502e-06,9.2394e-06,1.4522e-05,1.3947e-05,2021-04-07 16:20:14.122000
9.8809e-05,-3.7037e-07,-3.1439e-05,-2.8321e-05,-2.9006e-05,2021-04-07 16:20:14.124000
-0.00020591,1.661e-05,1.3778e-05,0.00015087,9.6492e-06,2021-04-07 16:20:14.144000
-0.00024062,7.6664e-05,8.8883e-05,0.00023354,2.3242e-05,2021-04-07 16:20:14.146000
-0.00013882,2.3692e-05,5.8079e-06,0.00014568,-1.7082e-05,2021-04-07 16:20:14.148000
-0.00023405,5.8309e-05,6.6416e-05,0.00021086,1.6552e-05,2021-04-07 16:20:14.150000
-0.00031505,5.3177e-05,8.2996e-05,0.00022321,4.7152e-05,2021-04-07 16:20:14.152000
-0.00039193,5.4847e-05,0.00010355,0.00024759,7.4673e-05,2021-04-07 16:20:14.154000
-0.00046282,6.0646e-05,0.00013831,0.0002839,0.00010509,2021-04-07 16:20:14.156000
-0.00048811,5.0358e-05,0.00014156,0.00028982,0.00011628,2021-04-07 16:20:14.158000
-0.00047568,5.8638e-05,0.00013385,0.00028533,0.00010116,2021-04-07 16:20:14.160000
-0.00037255,5.3708e-05,8.8643e-05,0.00023822,6.1872e-05,2021-04-07 16:20:14.162000
-0.00024725,5.2379e-05,5.8843e-05,0.00020391,2.9608e-05,2021-04-07 16:20:14.164000
-0.00017108,5.5047e-05,4.1421e-05,0.00017692,3.2715e-06,2021-04-07 16:20:14.166000
-0.00014435,5.1958e-05,2.8598e-05,0.00016769,-4.344e-06,2021-04-07 16:20:14.168000
-0.00019229,5.3676e-05,5.0127e-05,0.00019196,1.3283e-05,2021-04-07 16:20:14.170000
-0.00028851,5.2027e-05,7.3088e-05,0.00021351,3.8015e-05,2021-04-07 16:20:14.172000
-0.00037032,5.1992e-05,9.7245e-05,0.0002433,7.3166e-05,2021-04-07 16:20:14.174000
-0.0004493,5.5415e-05,0.00012843,0.00026797,9.9807e-05,2021-04-07 16:20:14.176000
-0.00048381,5.54e-05,0.00013642,0.00027281,0.00010358,2021-04-07 16:20:14.178000
-0.00041717,5.7764e-05,0.00011585,0.00025683,8.661e-05,2021-04-07 16:20:14.180000
-0.00032749,5.8857e-05,8.0106e-05,0.0002177,5.1748e-05,2021-04-07 16:20:14.182000
-0.00024232,5.0023e-05,4.4501e-05,0.00018119,1.6192e-05,2021-04-07 16:20:14.184000
-0.00015589,4.5883e-05,2.5254e-05,0.0001609,-6.3507e-06,2021-04-07 16:20:14.186000
-0.00013583,4.9324e-05,2.4774e-05,0.00015802,-6.8128e-06,2021-04-07 16:20:14.188000
-0.00018686,5.3706e-05,3.7264e-05,0.00017352,8.0269e-06,2021-04-07 16:20:14.190000
-0.00027382,5.6536e-05,6.6464e-05,0.00020088,3.5182e-05,2021-04-07 16:20:14.192000
-0.00037516,5.2421e-05,0.00010075,0.00022979,7.1828e-05,2021-04-07 16:20:14.194000
-0.00044264,5.3908e-05,0.00011745,0.00025311,9.3848e-05,2021-04-07 16:20:14.196000
-0.00045387,5.6089e-05,0.0001222,0.00026464,9.9122e-05,2021-04-07 16:20:14.198000
-0.00041771,5.0435e-05,0.00010768,0.00024592,8.2284e-05,2021-04-07 16:20:14.200000
-0.00032176,4.8969e-05,6.8836e-05,0.00020445,4.2005e-05,2021-04-07 16:20:14.202000
-0.00020509,4.9916e-05,4.1155e-05,0.00017384,8.4764e-06,2021-04-07 16:20:14.204000
-0.00014595,5.2003e-05,2.239e-05,0.00015628,-1.1184e-05,2021-04-07 16:20:14.206000
-0.00013494,5.3578e-05,9.9675e-06,0.00014732,-1.3833e-05,2021-04-07 16:20:14.208000
-0.00017248,5.3697e-05,3.2521e-05,0.00016209,5.8455e-06,2021-04-07 16:20:14.210000
-0.00027411,5.6211e-05,6.406e-05,0.00019645,3.5362e-05,2021-04-07 16:20:14.212000
-0.00035641,6.0168e-05,8.8599e-05,0.00022773,6.5848e-05,2021-04-07 16:20:14.214000
-0.00040354,6.7571e-05,0.00011934,0.00025076,8.5112e-05,2021-04-07 16:20:14.216000
-0.00044108,7.1493e-05,0.00012779,0.00026072,8.9801e-05,2021-04-07 16:20:14.218000
-0.00039348,7.0248e-05,0.00010543,0.00023987,7.8991e-05,2021-04-07 16:20:14.220000
-0.00027092,7.3916e-05,7.5417e-05,0.00020324,4.7707e-05,2021-04-07 16:20:14.222000
-0.00017474,7.4671e-05,4.2497e-05,0.00017295,1.1712e-05,2021-04-07 16:20:14.224000
-0.00011601,6.8558e-05,1.4902e-05,0.00014583,-1.3137e-05,2021-04-07 16:20:14.226000
-9.237e-05,7.272e-05,1.0999e-05,0.00013811,-1.5517e-05,2021-04-07 16:20:14.228000
-0.00014792,7.9446e-05,3.0803e-05,0.00015701,9.55e-06,2021-04-07 16:20:14.230000
-0.0002422,7.5462e-05,5.6496e-05,0.00018116,4.2789e-05,2021-04-07 16:20:14.232000
-0.00031735,7.6358e-05,8.4726e-05,0.00020486,7.0934e-05,2021-04-07 16:20:14.234000
-0.00039517,7.6653e-05,0.00011474,0.00022728,9.3745e-05,2021-04-07 16:20:14.236000
-0.00042522,6.5709e-05,0.00011867,0.00023048,9.477e-05,2021-04-07 16:20:14.238000
-0.00035818,5.9393e-05,9.5248e-05,0.00020685,6.8469e-05,2021-04-07 16:20:14.240000
-0.00026012,6.6771e-05,7.2144e-05,0.00018451,3.8872e-05,2021-04-07 16:20:14.242000
-0.00017741,7.3559e-05,4.2804e-05,0.00017093,1.1602e-05,2021-04-07 16:20:14.244000
-0.00011439,6.9071e-05,1.2398e-05,0.00014603,-1.3867e-05,2021-04-07 16:20:14.246000
-9.2112e-05,7.2316e-05,9.8882e-06,0.00013587,-1.6096e-05,2021-04-07 16:20:14.248000
-0.00014878,7.9164e-05,2.9442e-05,0.00015702,8.9385e-06,2021-04-07 16:20:14.250000
-0.00024097,7.5664e-05,5.4672e-05,0.00017971,4.2347e-05,2021-04-07 16:20:14.252000
-0.00031713,7.6156e-05,8.3865e-05,0.00020356,7.0226e-05,2021-04-07 16:20:14.254000
-0.00039715,7.6077e-05,0.00011264,0.00022769,9.3067e-05,2021-04-07 16:20:14.256000
-0.00042039,6.7053e-05,0.00011809,0.00022712,9.4912e-05,2021-04-07 16:20:14.258000
-0.00036504,5.6979e-05,9.2997e-05,0.00020916,6.628e-05,2021-04-07 16:20:14.260000
-0.00025161,6.9922e-05,7.1667e-05,0.00018001,4.1069e-05,2021-04-07 16:20:14.262000
-0.00010845,9.593e-05,5.5368e-05,0.00013979,1.9671e-05,2021-04-07 16:20:14.264000
-5.6052e-05,9.0343e-05,2.6218e-05,0.00011444,-6.0532e-06,2021-04-07 16:20:14.266000
-6.8173e-05,7.842e-05,1.3492e-05,0.00011395,-7.3036e-06,2021-04-07 16:20:14.268000
-0.0001119,8.0709e-05,2.9949e-05,0.00013606,1.5489e-05,2021-04-07 16:20:14.270000
-0.0002266,7.6466e-05,5.6312e-05,0.00016607,4.893e-05,2021-04-07 16:20:14.272000
-0.00031604,7.609e-05,8.3587e-05,0.00018909,8.3412e-05,2021-04-07 16:20:14.274000
-0.00036847,7.9772e-05,0.00010372,0.00021446,0.00010579,2021-04-07 16:20:14.276000
-0.00039993,7.8822e-05,0.00010588,0.00021619,0.00010414,2021-04-07 16:20:14.278000
-0.00034954,7.1622e-05,8.0774e-05,0.00018559,7.3952e-05,2021-04-07 16:20:14.280000
-0.00025204,6.2598e-05,4.393e-05,0.0001615,4.1093e-05,2021-04-07 16:20:14.282000
-0.00016073,6.0298e-05,1.3562e-05,0.00013457,9.2875e-06,2021-04-07 16:20:14.284000
-9.5945e-05,5.7222e-05,-1.2046e-05,0.00010557,-2.4949e-05,2021-04-07 16:20:14.286000
-8.6432e-05,5.6961e-05,-1.1526e-05,0.00010848,-2.3499e-05,2021-04-07 16:20:14.288000
-0.00015014,6.206e-05,1.4218e-05,0.00012885,5.9878e-06,2021-04-07 16:20:14.290000
-0.00024685,5.75e-05,4.0923e-05,0.0001569,2.8668e-05,2021-04-07 16:20:14.292000
-0.00033309,4.8427e-05,7.1722e-05,0.00019627,5.8117e-05,2021-04-07 16:20:14.294000
-0.0004072,5.0021e-05,9.0075e-05,0.00021415,8.6166e-05,2021-04-07 16:20:14.296000
-0.00041558,5.3724e-05,8.6112e-05,0.00020558,8.301e-05,2021-04-07 16:20:14.298000
-0.00034627,5.0111e-05,6.9198e-05,0.0001908,6.229e-05,2021-04-07 16:20:14.300000
-0.00025391,4.7232e-05,3.6139e-05,0.00016053,3.5208e-05,2021-04-07 16:20:14.302000
-0.00015704,4.6888e-05,3.2006e-06,0.00012277,-1.2975e-06,2021-04-07 16:20:14.304000
-9.4205e-05,4.6951e-05,-1.4512e-05,0.00010319,-2.1012e-05,2021-04-07 16:20:14.306000
-9.9285e-05,4.8136e-05,-1.4249e-05,0.00010436,-1.3809e-05,2021-04-07 16:20:14.308000
-0.00016312,4.9197e-05,4.0491e-06,0.00012339,2.7677e-07,2021-04-07 16:20:14.310000
-0.00025389,5.1194e-05,3.074e-05,0.00015386,2.3758e-05,2021-04-07 16:20:14.312000
-0.00034134,5.1902e-05,5.9452e-05,0.00018393,5.7366e-05,2021-04-07 16:20:14.314000
-0.00040441,5.0168e-05,7.8254e-05,0.00020536,7.8744e-05,2021-04-07 16:20:14.316000
-0.00040743,4.8278e-05,7.8602e-05,0.00020633,7.5814e-05,2021-04-07 16:20:14.318000
-0.00035302,4.6307e-05,5.8024e-05,0.00018101,5.4498e-05,2021-04-07 16:20:14.320000
-0.00025812,4.2487e-05,2.1493e-05,0.00014266,2.3192e-05,2021-04-07 16:20:14.322000
-0.00015457,3.6073e-05,-5.3594e-06,0.00011188,-9.0343e-06,2021-04-07 16:20:14.324000
-0.0001065,3.3804e-05,-1.7552e-05,9.7062e-05,-2.5345e-05,2021-04-07 16:20:14.326000
-0.00011205,3.6186e-05,-2.0553e-05,9.722e-05,-2.5343e-05,2021-04-07 16:20:14.328000
-0.00017069,3.781e-05,-3.5593e-06,0.00011547,-7.8155e-06,2021-04-07 16:20:14.330000
-0.00027629,3.8e-05,2.6821e-05,0.00014752,3.2838e-05,2021-04-07 16:20:14.332000
-0.00035668,3.7703e-05,5.5428e-05,0.00017849,6.4429e-05,2021-04-07 16:20:14.334000
-0.00040267,4.2533e-05,7.3087e-05,0.00019625,7.7357e-05,2021-04-07 16:20:14.336000
-0.0004162,4.3336e-05,7.4142e-05,0.00019097,7.4086e-05,2021-04-07 16:20:14.338000
-0.0003581,3.6911e-05,5.4588e-05,0.00016452,4.3712e-05,2021-04-07 16:20:14.340000
-0.00025425,2.8369e-05,2.3767e-05,0.00014372,6.67e-06,2021-04-07 16:20:14.342000
-0.00017649,-1.6807e-06,7.2089e-06,0.00014752,-4.3523e-05,2021-04-07 16:20:14.344000
-0.00014653,-3.7187e-05,6.4981e-06,0.00016649,-0.00010095,2021-04-07 16:20:14.346000
-0.00016068,-7.283e-05,2.893e-05,0.0002093,-0.00013325,2021-04-07 16:20:14.348000
-0.00024674,-0.0001318,7.4648e-05,0.0002695,-0.00014983,2021-04-07 16:20:14.350000
-0.00035427,-0.00016914,0.00012064,0.00032409,-0.000161,2021-04-07 16:20:14.352000
-0.00044849,-0.00019407,0.00017939,0.00040101,-0.00016742,2021-04-07 16:20:14.354000
-0.00054005,-0.00022272,0.0002248,0.00046704,-0.00016176,2021-04-07 16:20:14.356000
-0.00051113,-0.00018305,0.00024432,0.00047061,-0.0001676,2021-04-07 16:20:14.358000
-0.00037989,-0.00011207,0.00026335,0.00045602,-0.00019057,2021-04-07 16:20:14.360000
-0.00026595,-5.2977e-05,0.00022273,0.00044212,-0.00019094,2021-04-07 16:20:14.362000
-0.0001607,2.2465e-05,0.00013609,0.00043663,-0.00017389,2021-04-07 16:20:14.364000
-9.4182e-05,0.00010723,6.0726e-05,0.00044821,-0.00011558,2021-04-07 16:20:14.366000
-6.6634e-05,0.00025114,-1.2614e-05,0.00046586,-1.8123e-05,2021-04-07 16:20:14.368000
-4.7977e-05,0.00046451,-4.6997e-05,0.00048112,9.8153e-05,2021-04-07 16:20:14.370000
-4.2534e-05,0.0006738,-7.5059e-05,0.0004389,0.00024722,2021-04-07 16:20:14.372000
2.6631e-07,0.00088053,-0.0001203,0.00029677,0.00037092,2021-04-07 16:20:14.374000
0.00013615,0.0011326,-0.00010829,7.2143e-05,0.00048044,2021-04-07 16:20:14.376000
0.00034344,0.0013644,-9.6947e-05,-0.00016774,0.00056986,2021-04-07 16:20:14.378000
0.00054955,0.0014761,-0.00013917,-0.00042179,0.00058237,2021-04-07 16:20:14.380000
0.00080076,0.0015686,-0.00016354,-0.00069056,0.00058975,2021-04-07 16:20:14.382000
0.0010721,0.001643,-0.00014752,-0.00087136,0.00057663,2021-04-07 16:20:14.384000
0.0011883,0.00155,-0.00010788,-0.0010098,0.00051124,2021-04-07 16:20:14.386000
0.0011925,0.0014113,-8.0409e-05,-0.0011252,0.00047544,2021-04-07 16:20:14.388000
0.0011176,0.0012974,-7.2746e-05,-0.0011432,0.00047839,2021-04-07 16:20:14.390000
0.00091323,0.0010753,-2.9882e-05,-0.0011128,0.00047841,2021-04-07 16:20:14.392000
0.00066884,0.00073786,-2.1618e-05,-0.0009854,0.00046359,2021-04-07 16:20:14.394000
0.00030695,0.00037935,-0.00016266,-0.00075666,0.00047808,2021-04-07 16:20:14.396000
-0.00011927,0.00014115,-0.00034409,-0.00054608,0.000497,2021-04-07 16:20:14.398000
-0.00029778,2.5687e-05,-0.00040988,-0.00038933,0.00043853,2021-04-07 16:20:14.400000
-0.00028552,-6.8919e-05,-0.00038185,-0.00031855,0.00034315,2021-04-07 16:20:14.402000
-0.00022269,-9.0175e-05,-0.00032679,-0.00029103,0.00024275,2021-04-07 16:20:14.404000
-0.00010052,-3.5372e-05,-0.00025472,-0.00024606,0.00015305,2021-04-07 16:20:14.406000
-5.5654e-05,7.1545e-06,-0.0001654,-0.00019334,0.00011164,2021-04-07 16:20:14.408000
-0.00012322,1.1974e-05,-8.0175e-05,-0.00012007,8.4581e-05,2021-04-07 16:20:14.410000
-0.00018914,-4.444e-07,-1.312e-05,-5.1204e-05,7.3156e-05,2021-04-07 16:20:14.412000
-0.00023183,2.5938e-05,4.5979e-05,1.7731e-06,9.2147e-05,2021-04-07 16:20:14.414000
-0.00026207,7.4672e-05,9.6284e-05,5.3394e-05,0.00010471,2021-04-07 16:20:14.416000
-0.00021873,0.00010118,0.00012377,7.6499e-05,9.0317e-05,2021-04-07 16:20:14.418000
-9.5179e-05,0.00012214,0.00011942,7.168e-05,5.088e-05,2021-04-07 16:20:14.420000
1.0631e-05,0.0001251,9.338e-05,5.4381e-05,8.4314e-06,2021-04-07 16:20:14.422000
8.3116e-05,0.00010744,6.134e-05,2.7957e-05,-2.4317e-05,2021-04-07 16:20:14.424000
0.00012632,9.2117e-05,4.2595e-05,1.6499e-05,-4.1283e-05,2021-04-07 16:20:14.426000
8.8129e-05,7.7906e-05,5.3927e-05,3.4888e-05,-3.5145e-05,2021-04-07 16:20:14.428000
3.1296e-06,7.0432e-05,7.1517e-05,6.4082e-05,-1.6141e-05,2021-04-07 16:20:14.430000
-8.6146e-05,6.6115e-05,9.3969e-05,9.4716e-05,1.2245e-05,2021-04-07 16:20:14.432000
-0.00019024,5.5279e-05,0.00013171,0.00013046,3.833e-05,2021-04-07 16:20:14.434000
-0.00025033,4.7248e-05,0.00014987,0.00015305,5.0594e-05,2021-04-07 16:20:14.436000
-0.00022239,4.6473e-05,0.00014256,0.00015034,4.5653e-05,2021-04-07 16:20:14.438000
-0.00016254,4.7616e-05,0.00012115,0.00013053,1.8197e-05,2021-04-07 16:20:14.440000
-8.2918e-05,5.0812e-05,8.9074e-05,9.9753e-05,-1.5649e-05,2021-04-07 16:20:14.442000
1.7941e-05,5.6116e-05,6.8209e-05,7.0626e-05,-4.6634e-05,2021-04-07 16:20:14.444000
7.0033e-05,5.2664e-05,5.9692e-05,6.0575e-05,-6.5222e-05,2021-04-07 16:20:14.446000
5.0604e-05,4.6943e-05,5.7334e-05,6.9755e-05,-5.6822e-05,2021-04-07 16:20:14.448000
-1.8016e-05,4.9215e-05,7.8752e-05,9.2331e-05,-3.6445e-05,2021-04-07 16:20:14.450000
-0.00011665,4.3771e-05,0.00011732,0.00012531,-1.0034e-05,2021-04-07 16:20:14.452000
-0.00019957,3.6955e-05,0.00014386,0.00015813,2.3616e-05,2021-04-07 16:20:14.454000
-0.00023972,3.8116e-05,0.00015822,0.0001785,4.2848e-05,2021-04-07 16:20:14.456000
-0.0002268,3.4049e-05,0.00015489,0.0001707,3.0493e-05,2021-04-07 16:20:14.458000
-0.00015343,2.8714e-05,0.00012309,0.00013738,6.027e-07,2021-04-07 16:20:14.460000
-5.8311e-05,2.4144e-05,8.9586e-05,0.00010694,-2.4188e-05,2021-04-07 16:20:14.462000
2.6706e-05,2.1702e-05,6.5785e-05,8.4759e-05,-5.1848e-05,2021-04-07 16:20:14.464000
8.3162e-05,2.6976e-05,5.0382e-05,6.8061e-05,-7.3259e-05,2021-04-07 16:20:14.466000
5.983e-05,3.0892e-05,6.0711e-05,7.4678e-05,-6.2516e-05,2021-04-07 16:20:14.468000
-2.0671e-05,3.1283e-05,8.8617e-05,0.0001029,-3.9389e-05,2021-04-07 16:20:14.470000
-9.0776e-05,3.2439e-05,0.00011551,0.00012917,-1.4657e-05,2021-04-07 16:20:14.472000
-0.00016556,3.3114e-05,0.00014193,0.00015124,1.5546e-05,2021-04-07 16:20:14.474000
-0.00022716,2.9713e-05,0.00016077,0.00017326,2.8564e-05,2021-04-07 16:20:14.476000
-0.00020865,2.6647e-05,0.00015437,0.00016967,1.9627e-05,2021-04-07 16:20:14.478000
-0.00012668,3.0268e-05,0.00012787,0.00013617,-2.2389e-06,2021-04-07 16:20:14.480000
-2.8333e-05,3.2413e-05,0.00010167,0.00010337,-3.2795e-05,2021-04-07 16:20:14.482000
6.3803e-05,2.7134e-05,7.5192e-05,7.3539e-05,-6.249e-05,2021-04-07 16:20:14.484000
0.00011202,2.3583e-05,6.1235e-05,5.5175e-05,-7.9009e-05,2021-04-07 16:20:14.486000
8.4308e-05,3.0525e-05,8.2298e-05,7.0469e-05,-6.8738e-05,2021-04-07 16:20:14.488000
5.2196e-06,3.5417e-05,0.00010933,9.9575e-05,-4.128e-05,2021-04-07 16:20:14.490000
-7.9371e-05,3.1598e-05,0.00013081,0.00012539,-1.341e-05,2021-04-07 16:20:14.492000
-0.00016156,3.2313e-05,0.00016458,0.00015011,1.2918e-05,2021-04-07 16:20:14.494000
-0.00021082,3.1949e-05,0.00017954,0.00016196,2.6459e-05,2021-04-07 16:20:14.496000
-0.00018239,2.8753e-05,0.00017629,0.00015151,2.0667e-05,2021-04-07 16:20:14.498000
-0.00010608,3.3619e-05,0.0001633,0.00012246,-1.1567e-06,2021-04-07 16:20:14.500000
-9.4142e-06,3.6927e-05,0.00011895,8.7702e-05,-3.6762e-05,2021-04-07 16:20:14.502000
9.1386e-05,3.3356e-05,0.00010551,5.9614e-05,-6.8272e-05,2021-04-07 16:20:14.504000
0.00013411,3.1458e-05,0.00012537,4.6393e-05,-7.8936e-05,2021-04-07 16:20:14.506000
0.00010927,3.5521e-05,0.00011248,5.3938e-05,-7.1227e-05,2021-04-07 16:20:14.508000
4.7342e-05,4.0929e-05,0.00012127,7.8956e-05,-4.7616e-05,2021-04-07 16:20:14.510000
-4.2769e-05,3.9505e-05,0.00016364,0.00010935,-1.6234e-05,2021-04-07 16:20:14.512000
-0.00012274,3.7935e-05,0.00018477,0.00013449,7.4559e-06,2021-04-07 16:20:14.514000
-0.00016022,3.8994e-05,0.00019722,0.00014799,2.1003e-05,2021-04-07 16:20:14.516000
-0.00014139,3.9177e-05,0.0001929,0.0001336,1.2943e-05,2021-04-07 16:20:14.518000
-5.2908e-05,4.5532e-05,0.00016227,9.8519e-05,-1.9108e-05,2021-04-07 16:20:14.520000
5.5468e-05,4.855e-05,0.00013853,7.3451e-05,-4.6134e-05,2021-04-07 16:20:14.522000
0.00013378,4.7977e-05,0.00012047,4.6077e-05,-7.2032e-05,2021-04-07 16:20:14.524000
0.00018092,5.4151e-05,0.00010135,2.1433e-05,-9.679e-05,2021-04-07 16:20:14.526000
0.00015974,5.5272e-05,0.00010823,3.5014e-05,-8.5989e-05,2021-04-07 16:20:14.528000
7.7392e-05,5.8119e-05,0.00013815,6.1007e-05,-5.662e-05,2021-04-07 16:20:14.530000
5.8006e-06,6.2471e-05,0.00017039,8.1796e-05,-3.0252e-05,2021-04-07 16:20:14.532000
-6.4342e-05,5.6492e-05,0.00020405,0.00011265,2.2883e-06,2021-04-07 16:20:14.534000
-0.00012121,5.9272e-05,0.00022296,0.00012945,1.9668e-05,2021-04-07 16:20:14.536000
-9.2875e-05,6.3667e-05,0.00021359,0.00011785,5.9034e-06,2021-04-07 16:20:14.538000
-7.5841e-06,5.4548e-05,0.00018465,9.0183e-05,-2.4195e-05,2021-04-07 16:20:14.540000
8.9037e-05,5.3304e-05,0.00015434,5.2903e-05,-5.648e-05,2021-04-07 16:20:14.542000
0.00018447,5.9921e-05,0.00013173,2.0838e-05,-8.5181e-05,2021-04-07 16:20:14.544000
0.00022551,6.1043e-05,0.00011803,6.3541e-06,-9.8643e-05,2021-04-07 16:20:14.546000
0.00019542,6.3759e-05,0.00013106,1.5586e-05,-8.4517e-05,2021-04-07 16:20:14.548000
0.00013,6.711e-05,0.00015851,4.3492e-05,-5.7029e-05,2021-04-07 16:20:14.550000
4.8303e-05,6.6689e-05,0.00018844,6.8602e-05,-2.745e-05,2021-04-07 16:20:14.552000
-3.8941e-05,6.7724e-05,0.00022721,8.9369e-05,2.2366e-06,2021-04-07 16:20:14.554000
-8.0391e-05,6.7603e-05,0.00023925,0.00010494,1.1649e-05,2021-04-07 16:20:14.556000
-3.7341e-05,6.7576e-05,0.00022472,9.528e-05,-1.3476e-06,2021-04-07 16:20:14.558000
4.2786e-05,7.0805e-05,0.00020536,6.13e-05,-2.727e-05,2021-04-07 16:20:14.560000
0.00012976,6.8312e-05,0.00017454,2.4432e-05,-6.0865e-05,2021-04-07 16:20:14.562000
0.00021907,6.4133e-05,0.00015072,-2.2448e-06,-8.755e-05,2021-04-07 16:20:14.564000
0.00026029,6.3984e-05,0.00014528,-1.6568e-05,-0.00010491,2021-04-07 16:20:14.566000
0.00023491,6.6051e-05,0.00015975,-7.7843e-06,-9.499e-05,2021-04-07 16:20:14.568000
0.00016343,7.2465e-05,0.00018905,2.1411e-05,-5.7877e-05,2021-04-07 16:20:14.570000
7.3904e-05,7.3911e-05,0.00021463,4.6669e-05,-3.4811e-05,2021-04-07 16:20:14.572000
6.14e-06,7.6752e-05,0.00023947,6.7243e-05,-1.666e-05,2021-04-07 16:20:14.574000
-2.024e-05,8.4024e-05,0.00025609,7.9729e-05,2.8196e-06,2021-04-07 16:20:14.576000
8.8202e-06,7.7919e-05,0.00024567,6.4167e-05,-3.7532e-06,2021-04-07 16:20:14.578000
9.9458e-05,7.445e-05,0.00021799,3.0298e-05,-3.1117e-05,2021-04-07 16:20:14.580000
0.00020594,7.7196e-05,0.00019433,1.9371e-06,-6.9097e-05,2021-04-07 16:20:14.582000
0.00028454,7.3067e-05,0.00017475,-2.1998e-05,-0.00010047,2021-04-07 16:20:14.584000
0.00033208,7.6751e-05,0.00016209,-4.0987e-05,-0.00010709,2021-04-07 16:20:14.586000
0.0003089,8.2996e-05,0.00017856,-3.1018e-05,-9.304e-05,2021-04-07 16:20:14.588000
0.00021698,8.0306e-05,0.00021175,-1.6026e-06,-6.8658e-05,2021-04-07 16:20:14.590000
0.00014284,7.8147e-05,0.0002386,2.1041e-05,-3.9759e-05,2021-04-07 16:20:14.592000
8.3954e-05,8.2387e-05,0.00026506,4.3856e-05,-6.3505e-06,2021-04-07 16:20:14.594000
3.562e-05,8.6492e-05,0.00028164,5.1708e-05,5.4028e-06,2021-04-07 16:20:14.596000
7.3254e-05,8.6962e-05,0.00027169,2.9923e-05,-1.5896e-05,2021-04-07 16:20:14.598000
0.0001718,8.6661e-05,0.00024393,2.5546e-06,-4.099e-05,2021-04-07 16:20:14.600000
0.00026462,8.2047e-05,0.00021802,-2.9197e-05,-6.6213e-05,2021-04-07 16:20:14.602000
0.00035045,8.1513e-05,0.00019844,-6.4284e-05,-9.4152e-05,2021-04-07 16:20:14.604000
0.00039463,8.4026e-05,0.000188,-7.5531e-05,-0.00010392,2021-04-07 16:20:14.606000
0.00035524,7.9e-05,0.00020116,-6.0987e-05,-8.725e-05,2021-04-07 16:20:14.608000
0.00027624,7.9024e-05,0.00023052,-3.5883e-05,-6.2961e-05,2021-04-07 16:20:14.610000
0.00019982,8.3926e-05,0.00026174,-1.0427e-05,-3.8044e-05,2021-04-07 16:20:14.612000
0.00012657,8.5723e-05,0.00028998,9.4125e-06,-7.0903e-06,2021-04-07 16:20:14.614000
9.3526e-05,8.5731e-05,0.00030176,1.9687e-05,5.3835e-06,2021-04-07 16:20:14.616000
0.00012857,8.1608e-05,0.0002906,7.6078e-06,-7.7131e-06,2021-04-07 16:20:14.618000
0.00022049,7.6226e-05,0.00026035,-2.7709e-05,-3.2354e-05,2021-04-07 16:20:14.620000
0.00032674,7.2286e-05,0.00022697,-6.3932e-05,-6.6431e-05,2021-04-07 16:20:14.622000
0.00039424,7.2141e-05,0.0002078,-8.518e-05,-8.7233e-05,2021-04-07 16:20:14.624000
0.00042428,7.4129e-05,0.00020153,-9.8719e-05,-9.294e-05,2021-04-07 16:20:14.626000
0.00039856,7.0799e-05,0.00021081,-9.8557e-05,-8.9506e-05,2021-04-07 16:20:14.628000
0.00031183,6.7016e-05,0.00023727,-6.7344e-05,-5.8937e-05,2021-04-07 16:20:14.630000
0.00022257,6.4933e-05,0.00026356,-3.2551e-05,-2.6735e-05,2021-04-07 16:20:14.632000
0.00014551,5.8443e-05,0.00028291,-1.1959e-05,-5.7111e-06,2021-04-07 16:20:14.634000
0.00010594,5.5517e-05,0.0002976,2.841e-06,1.6884e-05,2021-04-07 16:20:14.636000
0.00013851,5.5878e-05,0.00028407,-1.0159e-05,9.588e-06,2021-04-07 16:20:14.638000
0.00022524,4.9347e-05,0.00024606,-4.5481e-05,-2.4146e-05,2021-04-07 16:20:14.640000
0.00032657,4.2019e-05,0.0002203,-7.8516e-05,-5.1052e-05,2021-04-07 16:20:14.642000
0.00039639,3.6749e-05,0.00019674,-0.00010655,-7.2896e-05,2021-04-07 16:20:14.644000
0.00042729,3.3465e-05,0.00018066,-0.00011665,-7.8422e-05,2021-04-07 16:20:14.646000
0.0003928,3.1903e-05,0.00019805,-0.00010166,-5.8226e-05,2021-04-07 16:20:14.648000
0.0002932,2.5505e-05,0.00022101,-7.3822e-05,-3.0798e-05,2021-04-07 16:20:14.650000
0.00021187,1.9607e-05,0.00023913,-4.7939e-05,-2.4764e-06,2021-04-07 16:20:14.652000
0.00014443,1.7333e-05,0.00026083,-2.3146e-05,2.6556e-05,2021-04-07 16:20:14.654000
8.8277e-05,1.1335e-05,0.00026739,-1.4061e-05,3.6499e-05,2021-04-07 16:20:14.656000
0.00011825,2.8748e-06,0.0002524,-3.3847e-05,2.0047e-05,2021-04-07 16:20:14.658000
0.00020688,-2.3988e-06,0.00021836,-5.5377e-05,-1.198e-06,2021-04-07 16:20:14.660000
0.00028775,-7.7144e-06,0.00017561,-8.543e-05,-2.5481e-05,2021-04-07 16:20:14.662000
0.00035466,-1.385e-05,0.00014605,-0.00011754,-5.1553e-05,2021-04-07 16:20:14.664000
0.00037552,-1.6e-05,0.00013377,-0.00011346,-5.3488e-05,2021-04-07 16:20:14.666000
0.00031829,-1.7314e-05,0.00013917,-9.2331e-05,-3.3977e-05,2021-04-07 16:20:14.668000
0.00022339,-1.5524e-05,0.00016141,-6.3398e-05,-6.4868e-06,2021-04-07 16:20:14.670000
0.00012318,-1.3742e-05,0.00018384,-2.4552e-05,2.7089e-05,2021-04-07 16:20:14.672000
2.7877e-05,-2.1848e-05,0.0001994,1.1146e-06,5.2422e-05,2021-04-07 16:20:14.674000
-1.5987e-05,-2.8615e-05,0.0002013,1.0042e-05,5.8368e-05,2021-04-07 16:20:14.676000
1.7777e-05,-2.5809e-05,0.00017631,2.4333e-06,4.5573e-05,2021-04-07 16:20:14.678000
0.00010409,-1.9428e-05,0.00013461,-2.0957e-05,1.8185e-05,2021-04-07 16:20:14.680000
0.00019409,-1.9875e-05,9.5673e-05,-5.0621e-05,-1.6133e-05,2021-04-07 16:20:14.682000
0.0002493,-2.6236e-05,6.6453e-05,-6.9795e-05,-4.0485e-05,2021-04-07 16:20:14.684000
0.00025084,-2.5103e-05,5.2045e-05,-6.7643e-05,-4.6159e-05,2021-04-07 16:20:14.686000
0.00019473,-2.2591e-05,5.8125e-05,-5.0806e-05,-3.3097e-05,2021-04-07 16:20:14.688000
0.00010508,-2.083e-05,7.9198e-05,-1.926e-05,-3.7574e-07,2021-04-07 16:20:14.690000
1.9489e-06,-1.7011e-05,0.00010203,1.8023e-05,2.6896e-05,2021-04-07 16:20:14.692000
-8.3118e-05,-1.4959e-05,0.00011468,4.8593e-05,4.2292e-05,2021-04-07 16:20:14.694000
-0.00011422,-9.0057e-06,0.00011589,6.4062e-05,5.6447e-05,2021-04-07 16:20:14.696000
-8.6905e-05,-8.84e-06,9.8213e-05,4.7102e-05,4.0695e-05,2021-04-07 16:20:14.698000
-2.3488e-06,-1.3635e-05,5.4617e-05,1.5598e-05,3.4376e-06,2021-04-07 16:20:14.700000
9.0194e-05,-9.6748e-06,1.8507e-05,-8.2156e-06,-1.9186e-05,2021-04-07 16:20:14.702000
0.00014557,-8.1422e-06,-4.8018e-06,-2.9427e-05,-4.0012e-05,2021-04-07 16:20:14.704000
0.00016779,-7.181e-06,-2.4372e-05,-3.6322e-05,-5.3331e-05,2021-04-07 16:20:14.706000
0.00012015,7.692e-07,-9.5108e-06,-2.0703e-05,-3.3049e-05,2021-04-07 16:20:14.708000
1.5017e-05,2.1671e-06,1.6488e-05,1.0529e-05,-1.5249e-07,2021-04-07 16:20:14.710000
-6.7484e-05,-8.7869e-08,3.3057e-05,4.328e-05,2.6107e-05,2021-04-07 16:20:14.712000
-0.00012978,3.5605e-06,6.0093e-05,6.8351e-05,5.0336e-05,2021-04-07 16:20:14.714000
-0.00017727,2.244e-06,6.5809e-05,8.2611e-05,5.6256e-05,2021-04-07 16:20:14.716000
-0.00013971,-2.3836e-06,3.7381e-05,6.4497e-05,3.5612e-05,2021-04-07 16:20:14.718000
-3.5527e-05,-8.9817e-07,9.5234e-06,3.1686e-05,7.4929e-06,2021-04-07 16:20:14.720000
4.874e-05,-1.3945e-06,-1.496e-05,1.0307e-05,-2.0042e-05,2021-04-07 16:20:14.722000
0.00011848,-4.7259e-06,-4.3723e-05,-1.6654e-05,-4.5908e-05,2021-04-07 16:20:14.724000
0.00014343,-7.0611e-06,-5.4728e-05,-2.4809e-05,-5.2362e-05,2021-04-07 16:20:14.726000
7.5546e-05,-7.4517e-06,-3.9265e-05,8.5782e-08,-3.2072e-05,2021-04-07 16:20:14.728000
-6.9804e-06,-5.9262e-06,-1.3236e-05,2.5171e-05,-3.8588e-06,2021-04-07 16:20:14.730000
-8.6058e-05,-7.2966e-06,1.7511e-05,5.4812e-05,2.711e-05,2021-04-07 16:20:14.732000
-0.000169,-3.5133e-06,4.2878e-05,8.2588e-05,5.3816e-05,2021-04-07 16:20:14.734000
-0.00018088,7.267e-07,4.4139e-05,8.1448e-05,5.486e-05,2021-04-07 16:20:14.736000
-0.00013254,-6.7718e-06,2.1967e-05,6.6771e-05,3.7386e-05,2021-04-07 16:20:14.738000
-5.3012e-05,-1.0998e-05,-5.9884e-06,4.4319e-05,6.6314e-06,2021-04-07 16:20:14.740000
4.5446e-05,-9.5564e-06,-3.8241e-05,5.5587e-06,-3.2508e-05,2021-04-07 16:20:14.742000
0.00010504,-9.8932e-06,-6.5172e-05,-2.0106e-05,-5.339e-05,2021-04-07 16:20:14.744000
0.00011782,-7.8348e-06,-6.469e-05,-1.8875e-05,-5.4658e-05,2021-04-07 16:20:14.746000
7.7844e-05,-6.5602e-06,-5.5459e-05,-8.0199e-06,-3.8212e-05,2021-04-07 16:20:14.748000
-1.4895e-05,-8.4215e-06,-3.7776e-05,1.4304e-05,-7.2889e-06,2021-04-07 16:20:14.750000
-0.00010493,-1.02e-05,-5.7321e-07,4.7656e-05,1.6021e-05,2021-04-07 16:20:14.752000
-0.00016858,-8.8196e-06,2.3255e-05,7.5685e-05,3.894e-05,2021-04-07 16:20:14.754000
-0.00019046,-8.6579e-06,2.8015e-05,8.2108e-05,5.3423e-05,2021-04-07 16:20:14.756000
-0.00014881,-1.2445e-05,1.2575e-05,6.1126e-05,3.0356e-05,2021-04-07 16:20:14.758000
-5.8071e-05,-1.3704e-05,-2.645e-05,2.7721e-05,-5.4003e-06,2021-04-07 16:20:14.760000
4.0604e-05,-1.2209e-05,-5.193e-05,-3.5704e-06,-3.0927e-05,2021-04-07 16:20:14.762000
0.00010556,-9.3014e-06,-6.2188e-05,-2.4585e-05,-5.4533e-05,2021-04-07 16:20:14.764000
0.00012553,-1.1387e-05,-7.3381e-05,-2.9686e-05,-6.2379e-05,2021-04-07 16:20:14.766000
8.0101e-05,-1.3445e-05,-5.9437e-05,-1.3202e-05,-4.1751e-05,2021-04-07 16:20:14.768000
-2.1387e-05,-4.6588e-06,-2.4327e-05,2.2527e-05,-1.2753e-05,2021-04-07 16:20:14.770000
-0.00010091,-3.9133e-06,-9.7778e-07,5.0644e-05,1.1107e-05,2021-04-07 16:20:14.772000
-0.00015413,-7.703e-06,1.9543e-05,6.8713e-05,3.9345e-05,2021-04-07 16:20:14.774000
-0.00018933,-1.9274e-06,3.0762e-05,7.9224e-05,4.9869e-05,2021-04-07 16:20:14.776000
-0.00013654,-3.2609e-06,7.6246e-06,5.643e-05,2.3525e-05,2021-04-07 16:20:14.778000
-2.8707e-05,-6.4738e-06,-2.4865e-05,2.133e-05,-6.1742e-06,2021-04-07 16:20:14.780000
6.061e-05,-3.9794e-06,-4.9895e-05,-4.5103e-06,-3.2024e-05,2021-04-07 16:20:14.782000
0.00013397,-6.361e-06,-7.0582e-05,-2.894e-05,-6.1597e-05,2021-04-07 16:20:14.784000
0.00013925,-1.0127e-05,-7.4528e-05,-2.7346e-05,-6.6044e-05,2021-04-07 16:20:14.786000
6.8866e-05,-8.8191e-06,-5.4662e-05,-5.7515e-06,-4.2367e-05,2021-04-07 16:20:14.788000
5.8408e-07,-5.4711e-06,-2.0447e-05,1.5709e-05,-1.3912e-05,2021-04-07 16:20:14.790000
-7.6031e-05,-6.6551e-06,6.2893e-06,4.5254e-05,1.5156e-05,2021-04-07 16:20:14.792000
-0.00015557,-8.5559e-06,2.6586e-05,6.6378e-05,3.8979e-05,2021-04-07 16:20:14.794000
-0.00016681,-4.8181e-06,3.4529e-05,6.838e-05,4.2239e-05,2021-04-07 16:20:14.796000
-0.00010725,5.884e-07,1.2811e-05,4.7242e-05,2.3377e-05,2021-04-07 16:20:14.798000
-1.5062e-05,6.2953e-07,-2.099e-05,8.2789e-06,-1.0836e-05,2021-04-07 16:20:14.800000
8.1844e-05,-3.8589e-06,-5.6143e-05,-2.1116e-05,-4.5456e-05,2021-04-07 16:20:14.802000
0.00014799,-3.3578e-06,-7.4095e-05,-4.0876e-05,-6.251e-05,2021-04-07 16:20:14.804000
0.0001481,-3.5786e-06,-6.4357e-05,-4.58e-05,-6.2978e-05,2021-04-07 16:20:14.806000
9.216e-05,-9.3876e-06,-5.0124e-05,-2.5881e-05,-4.5341e-05,2021-04-07 16:20:14.808000
9.028e-06,-1.2322e-05,-2.2806e-05,4.2169e-06,-1.2772e-05,2021-04-07 16:20:14.810000
-8.6848e-05,-1.2368e-05,9.3336e-06,3.374e-05,1.5121e-05,2021-04-07 16:20:14.812000
-0.00014806,-7.6065e-06,2.2032e-05,5.3965e-05,3.3416e-05,2021-04-07 16:20:14.814000
-0.0001523,-5.4413e-06,2.6666e-05,5.6383e-05,3.6817e-05,2021-04-07 16:20:14.816000
-0.00011254,-1.0584e-05,1.182e-05,3.5571e-05,1.8875e-05,2021-04-07 16:20:14.818000
-2.036e-05,-1.1924e-05,-2.4581e-05,2.8283e-06,-1.2887e-05,2021-04-07 16:20:14.820000
7.944e-05,-1.0733e-05,-4.8753e-05,-2.5516e-05,-4.4307e-05,2021-04-07 16:20:14.822000
0.00013232,-4.1105e-06,-6.1766e-05,-4.7383e-05,-6.176e-05,2021-04-07 16:20:14.824000
0.00013903,-3.8755e-06,-7.1171e-05,-4.9481e-05,-6.6324e-05,2021-04-07 16:20:14.826000
8.5239e-05,-1.6158e-05,-5.3691e-05,-2.6503e-05,-4.7951e-05,2021-04-07 16:20:14.828000
-1.0048e-05,-1.1947e-05,-1.9252e-05,3.9509e-06,-8.02e-06,2021-04-07 16:20:14.830000
-8.631e-05,-4.3544e-06,6.6631e-06,2.8764e-05,1.879e-05,2021-04-07 16:20:14.832000
-0.00014372,-6.0954e-06,2.8871e-05,4.9084e-05,3.5482e-05,2021-04-07 16:20:14.834000
-0.0001733,-5.463e-06,2.8748e-05,5.4056e-05,4.3163e-05,2021-04-07 16:20:14.836000
-0.00011939,-9.9748e-06,2.9009e-06,2.6212e-05,2.0941e-05,2021-04-07 16:20:14.838000
-1.2814e-05,-6.6559e-06,-1.8775e-05,-7.8151e-06,-6.5236e-06,2021-04-07 16:20:14.840000
7.7271e-05,-5.1176e-06,-4.7185e-05,-3.3687e-05,-3.2526e-05,2021-04-07 16:20:14.842000
0.000141,-1.2613e-05,-7.5061e-05,-6.068e-05,-6.1029e-05,2021-04-07 16:20:14.844000
0.00014045,-8.3e-06,-7.3751e-05,-5.8843e-05,-5.8382e-05,2021-04-07 16:20:14.846000
6.4322e-05,-1.2557e-05,-5.451e-05,-3.1031e-05,-3.4172e-05,2021-04-07 16:20:14.848000
-1.6528e-05,-1.8023e-05,-2.6848e-05,-3.9376e-06,-1.1858e-05,2021-04-07 16:20:14.850000
-8.9197e-05,-8.6574e-06,2.4198e-06,2.6389e-05,1.8343e-05,2021-04-07 16:20:14.852000
-0.0001578,-9.144e-06,2.1489e-05,4.409e-05,3.8228e-05,2021-04-07 16:20:14.854000
-0.00016691,-1.2841e-05,2.4644e-05,3.8364e-05,3.156e-05,2021-04-07 16:20:14.856000
-0.00010478,-1.3915e-05,5.7161e-06,1.9233e-05,1.5867e-05,2021-04-07 16:20:14.858000
-1.2833e-05,-1.9741e-05,-2.8166e-05,-1.2568e-05,-9.4538e-06,2021-04-07 16:20:14.860000
7.5854e-05,-1.9125e-05,-6.0651e-05,-4.4691e-05,-4.2438e-05,2021-04-07 16:20:14.862000
0.00013063,-1.6762e-05,-7.7014e-05,-5.8556e-05,-6.2025e-05,2021-04-07 16:20:14.864000
0.00012387,-2.206e-05,-7.5764e-05,-5.4272e-05,-6.5028e-05,2021-04-07 16:20:14.866000
6.4829e-05,-2.4473e-05,-6.1084e-05,-3.6025e-05,-4.3715e-05,2021-04-07 16:20:14.868000
-1.3286e-05,-1.7093e-05,-3.2413e-05,-5.6538e-06,-3.872e-06,2021-04-07 16:20:14.870000
-9.7727e-05,-1.0973e-05,-3.8132e-06,2.0053e-05,2.1539e-05,2021-04-07 16:20:14.872000
-0.0001611,-1.5818e-05,1.3507e-05,3.4401e-05,3.4595e-05,2021-04-07 16:20:14.874000
-0.00016194,-2.1596e-05,1.4085e-05,3.8647e-05,3.9151e-05,2021-04-07 16:20:14.876000
-0.00010571,-1.7936e-05,-1.1406e-05,1.2292e-05,1.5869e-05,2021-04-07 16:20:14.878000
-1.3631e-05,-1.4518e-05,-4.6937e-05,-3.2321e-05,-2.2501e-05,2021-04-07 16:20:14.880000
8.0878e-05,-1.9244e-05,-6.9373e-05,-5.7524e-05,-5.0689e-05,2021-04-07 16:20:14.882000
0.00013432,-2.2637e-05,-8.2779e-05,-6.7112e-05,-6.5325e-05,2021-04-07 16:20:14.884000
0.00013742,-2.3083e-05,-9.0263e-05,-6.7585e-05,-6.4404e-05,2021-04-07 16:20:14.886000
7.6803e-05,-2.642e-05,-7.1897e-05,-4.6347e-05,-4.2918e-05,2021-04-07 16:20:14.888000
-2.7194e-05,-2.5002e-05,-3.5037e-05,-1.1986e-05,-1.2689e-05,2021-04-07 16:20:14.890000
-0.0001091,-2.4339e-05,-1.1655e-05,1.2441e-05,1.3389e-05,2021-04-07 16:20:14.892000
-0.00015893,-3.2748e-05,2.1846e-06,2.6328e-05,3.3903e-05,2021-04-07 16:20:14.894000
-0.0001656,-3.2041e-05,2.7883e-06,3.1591e-05,3.479e-05,2021-04-07 16:20:14.896000
-9.8914e-05,-2.8802e-05,-2.4312e-05,1.1789e-05,1.031e-05,2021-04-07 16:20:14.898000
-5.0007e-06,-3.7831e-05,-5.3603e-05,-1.9289e-05,-1.6391e-05,2021-04-07 16:20:14.900000
7.6458e-05,-3.8909e-05,-7.5503e-05,-4.533e-05,-3.7601e-05,2021-04-07 16:20:14.902000
0.00014461,-3.3105e-05,-9.6737e-05,-7.1206e-05,-5.897e-05,2021-04-07 16:20:14.904000
0.000141,-3.097e-05,-9.82e-05,-7.1548e-05,-6.3512e-05,2021-04-07 16:20:14.906000
6.2015e-05,-2.8303e-05,-7.5825e-05,-4.4259e-05,-4.5375e-05,2021-04-07 16:20:14.908000
-1.1916e-05,-3.4674e-05,-4.6199e-05,-1.7793e-05,-1.4912e-05,2021-04-07 16:20:14.910000
-8.4921e-05,-4.3722e-05,-1.7704e-05,1.1721e-05,2.202e-05,2021-04-07 16:20:14.912000
-0.00015798,-4.437e-05,1.6033e-06,3.7667e-05,3.9011e-05,2021-04-07 16:20:14.914000
-0.00015597,-4.5002e-05,-2.5841e-06,3.3349e-05,2.8105e-05,2021-04-07 16:20:14.916000
-7.8031e-05,-4.3319e-05,-2.9782e-05,5.4068e-06,1.2181e-05,2021-04-07 16:20:14.918000
1.4312e-05,-3.8986e-05,-6.0784e-05,-2.4268e-05,-1.4189e-05,2021-04-07 16:20:14.920000
9.7705e-05,-4.2973e-05,-8.5618e-05,-5.0665e-05,-4.6759e-05,2021-04-07 16:20:14.922000
0.00015482,-4.9056e-05,-0.00010103,-6.3381e-05,-5.9152e-05,2021-04-07 16:20:14.924000
0.0001459,-4.6991e-05,-9.9023e-05,-5.5819e-05,-5.4621e-05,2021-04-07 16:20:14.926000
7.8323e-05,-4.6624e-05,-8.0323e-05,-3.4248e-05,-3.4334e-05,2021-04-07 16:20:14.928000
-9.3605e-06,-5.0178e-05,-5.4092e-05,-1.4829e-06,-1.761e-06,2021-04-07 16:20:14.930000
-0.0001015,-4.7813e-05,-2.8308e-05,2.5783e-05,2.0167e-05,2021-04-07 16:20:14.932000
-0.00015132,-4.1381e-05,-9.312e-06,3.944e-05,3.6929e-05,2021-04-07 16:20:14.934000
-0.00013342,-3.7645e-05,-8.8894e-06,3.9776e-05,4.3786e-05,2021-04-07 16:20:14.936000
-8.0981e-05,-4.2665e-05,-3.3993e-05,1.4509e-05,1.7071e-05,2021-04-07 16:20:14.938000
5.033e-06,-4.9459e-05,-6.9175e-05,-2.0228e-05,-2.113e-05,2021-04-07 16:20:14.940000
0.00010261,-4.6289e-05,-9.6941e-05,-4.4797e-05,-4.4201e-05,2021-04-07 16:20:14.942000
0.00014673,-4.5679e-05,-0.00011366,-6.0131e-05,-5.6714e-05,2021-04-07 16:20:14.944000
0.00013539,-5.2246e-05,-0.00011403,-5.8219e-05,-5.7863e-05,2021-04-07 16:20:14.946000
8.2825e-05,-4.9668e-05,-9.2208e-05,-3.9014e-05,-3.7918e-05,2021-04-07 16:20:14.948000
-1.2972e-05,-4.581e-05,-5.8845e-05,-1.0347e-05,-6.2867e-06,2021-04-07 16:20:14.950000
-9.4099e-05,-5.0034e-05,-2.931e-05,1.9303e-05,2.0018e-05,2021-04-07 16:20:14.952000
-0.00012851,-4.7283e-05,-1.2497e-05,3.3563e-05,3.7716e-05,2021-04-07 16:20:14.954000
-0.0001281,-4.1976e-05,-2.2618e-05,2.5696e-05,3.4294e-05,2021-04-07 16:20:14.956000
-6.3362e-05,-4.5229e-05,-5.0241e-05,1.1614e-07,8.6048e-06,2021-04-07 16:20:14.958000
3.3062e-05,-4.8118e-05,-7.3516e-05,-2.9251e-05,-2.1337e-05,2021-04-07 16:20:14.960000
0.00010785,-4.939e-05,-0.00010086,-5.2225e-05,-5.1875e-05,2021-04-07 16:20:14.962000
0.00016343,-5.0337e-05,-0.0001202,-7.0901e-05,-6.6228e-05,2021-04-07 16:20:14.964000
0.00014811,-4.8374e-05,-0.00011207,-6.5787e-05,-5.3791e-05,2021-04-07 16:20:14.966000
6.5039e-05,-4.7422e-05,-9.1651e-05,-3.6305e-05,-3.2991e-05,2021-04-07 16:20:14.968000
-9.3765e-06,-4.5773e-05,-6.2414e-05,-1.2316e-05,-2.8114e-06,2021-04-07 16:20:14.970000
