ecg1,ecg2,ecg3,ecg4,ecg5,tstamp
0.00052519,0.00031583,0.0011732,-0.00015566,6.97E-05,25:05.9
0.0017643,0.00053822,0.0029022,-0.00065789,-0.00029286,25:05.9
0.0011259,0.00034942,0.0016184,-0.00034077,-0.00013131,25:06.0
0.0015265,0.00044809,0.0025242,-0.00053345,-0.00023993,25:06.0
0.0011819,0.00039468,0.0022505,-0.00038134,-0.00011433,25:06.0
0.00092182,0.0003838,0.0023291,-0.00028765,-4.10E-05,25:06.0
0.00086736,0.00041893,0.0026484,-0.00028373,-1.59E-05,25:06.0
0.00069759,0.00039353,0.0024806,-0.00019296,5.65E-05,25:06.0
0.00089939,0.00042316,0.0027814,-0.00027679,-1.20E-05,25:06.0
0.001061,0.00042241,0.0027626,-0.00033734,-9.73E-05,25:06.0
0.0013486,0.00041265,0.0028462,-0.00041101,-0.00020477,25:06.0
0.0015952,0.00039882,0.003029,-0.00047697,-0.00029082,25:06.0
0.0016433,0.00040323,0.0031217,-0.00049649,-0.0003273,25:06.0
0.0016254,0.00043441,0.0033708,-0.00049658,-0.00032882,25:06.0
0.0014189,0.00044646,0.0035457,-0.00041961,-0.00026526,25:06.0
0.0012061,0.00046247,0.0037958,-0.00035072,-0.00020916,25:06.0
0.0010382,0.0004752,0.0040378,-0.00030176,-0.00016452,25:06.0
0.00094765,0.00048728,0.0041823,-0.00027538,-0.00014967,25:06.0
0.001041,0.00050739,0.0043306,-0.00031381,-0.0001997,25:06.0
0.0012524,0.00053197,0.0044452,-0.0003898,-0.00026715,25:06.0
0.0015106,0.00054634,0.0045498,-0.00047556,-0.00035625,25:06.0
0.0017071,0.00053823,0.004626,-0.00054426,-0.00045444,25:06.0
0.0017676,0.00054098,0.0047379,-0.00056307,-0.00048987,25:06.0
0.0016614,0.00055389,0.0049247,-0.00052095,-0.00046887,25:06.0
0.0014324,0.00055609,0.0051033,-0.00045663,-0.00041332,25:06.0
0.0011603,0.0005586,0.005291,-0.00037781,-0.0003165,25:06.0
0.00089314,0.00056981,0.0055003,-0.00028973,-0.00024037,4/7/2021 16:25
0.00080889,0.00057895,0.0056807,-0.0002614,-0.00022995,25:06.0
0.00092202,0.00057819,0.0058169,-0.00028867,-0.00026284,25:06.0
0.0010642,0.00058387,0.0059648,-0.00033578,-0.00033271,25:06.0
0.0012748,0.00059688,0.0061391,-0.00041207,-0.00042984,25:06.0
0.001493,0.00060356,0.0062804,-0.00047279,-0.00051389,25:06.0
0.0015288,0.00060637,0.0064359,-0.00047776,-0.00054205,25:06.0
0.0014142,0.00060099,0.006609,-0.00044222,-0.00050929,25:06.0
0.0012004,0.00059008,0.0067581,-0.00035926,-0.00043722,25:06.0
0.00090963,0.00058809,0.0069406,-0.00025319,-0.00034177,25:06.0
0.00069184,0.00058373,0.0071209,-0.00017707,-0.00025941,25:06.0
0.00062734,0.00056398,0.0072592,-0.00013833,-0.00022976,25:06.0
0.00066841,0.00054078,0.0073781,-0.00015524,-0.00026176,25:06.0
0.00083418,0.00051796,0.0074643,-0.0002218,-0.00033145,25:06.0
0.0010989,0.00049229,0.0075331,-0.00028927,-0.00040814,25:06.0
0.0013054,0.00046879,0.0076045,-0.00034252,-0.0004772,25:06.0
0.0013765,0.00044336,0.0076837,-0.00035807,-0.00050339,25:06.0
0.001279,0.00041799,0.0077803,-0.00031334,-0.00047399,25:06.0
0.0010437,0.00040497,0.0078886,-0.00023862,-0.00040779,25:06.0
0.00081495,0.00039435,0.0079832,-0.00016492,-0.00031656,25:06.0
0.00062143,0.00037522,0.0080518,-9.79E-05,-0.00024665,25:06.0
0.00052041,0.00036015,0.0080951,-6.79E-05,-0.00022727,25:06.0
0.0006242,0.00035018,0.0081029,-0.00010191,-0.00025793,25:06.0
0.00084997,0.00033553,0.0080947,-0.00016916,-0.0003299,25:06.0
0.0011118,0.00031749,0.0080915,-0.00025142,-0.00041979,25:06.0
0.0013538,0.00029059,0.0080864,-0.00033169,-0.00051122,25:06.0
0.001456,0.00025752,0.0080966,-0.00035517,-0.00054313,25:06.1
0.0013817,0.00024098,0.0081327,-0.00032567,-0.00050437,25:06.1
0.0011968,0.00023916,0.0081753,-0.00027559,-0.00045079,25:06.1
0.00097776,0.00023235,0.0082233,-0.00019885,-0.00038333,25:06.1
0.00077302,0.00022337,0.0082671,-0.00012499,-0.00033085,25:06.1
0.00072482,0.00021342,0.0082734,-0.00010522,-0.00032008,25:06.1
0.00087859,0.00018408,0.0082502,-0.00013712,-0.00034595,25:06.1
0.0010759,0.00014972,0.0082231,-0.00020224,-0.00042295,25:06.1
0.0013596,0.00014559,0.0081908,-0.00029436,-0.00051879,25:06.1
0.0016879,0.00013224,0.0081654,-0.0003743,-0.00059547,25:06.1
0.0018041,9.76E-05,0.0081655,-0.00040347,-0.00061899,25:06.1
0.0017538,9.18E-05,0.0081784,-0.00039631,-0.00058982,25:06.1
0.0016261,6.36E-05,0.0082011,-0.00034843,-0.00055437,25:06.1
0.0013996,1.51E-05,0.0082486,-0.00026071,-0.00048947,25:06.1
0.0012218,7.94E-06,0.0082925,-0.00020101,-0.00042354,25:06.1
0.0012091,-3.15E-06,0.0082989,-0.00019748,-0.00042792,25:06.1
0.0013346,-1.19E-05,0.0082804,-0.00024715,-0.00048278,25:06.1
0.0015771,-1.01E-05,0.0082467,-0.00034284,-0.00057688,25:06.1
0.0018916,-3.33E-05,0.0082015,-0.00043421,-0.0006865,25:06.1
0.0021672,-5.22E-05,0.0081604,-0.00051537,-0.00077337,25:06.1
0.0023042,-6.36E-05,0.0081341,-0.00057347,-0.0008331,25:06.1
0.002249,-7.39E-05,0.0081301,-0.00055945,-0.00083365,25:06.1
0.0020599,-7.47E-05,0.0081441,-0.00050253,-0.00077892,25:06.1
0.0018613,-8.27E-05,0.0081617,-0.00043988,-0.00071136,25:06.1
0.0016891,-0.00010119,0.0081702,-0.00038045,-0.00064647,25:06.1
0.0016214,-0.00011237,0.0081664,-0.00036416,-0.00063558,25:06.1
0.0017611,-0.00010766,0.0081438,-0.00041485,-0.00069484,25:06.1
0.0020239,-0.00010868,0.0080961,-0.00050103,-0.00076646,25:06.1
0.0023057,-0.00012214,0.0080406,-0.00059564,-0.00086178,25:06.1
0.0025704,-0.00012858,0.0079917,-0.00068951,-0.00096933,25:06.1
0.0026995,-0.00012894,0.0079698,-0.00072959,-0.0010087,25:06.1
0.0026233,-0.00012744,0.0079925,-0.00070164,-0.00098457,25:06.1
0.0024404,-0.00012207,0.0080329,-0.00064711,-0.00092719,25:06.1
0.0022121,-0.00012037,0.0080753,-0.00056826,-0.00084341,25:06.1
0.001973,-0.00011808,0.0081198,-0.00050138,-0.000768,25:06.1
0.0018987,-0.00011287,0.008143,-0.00049502,-0.00075092,25:06.1
0.0020218,-0.00011279,0.0081458,-0.00052804,-0.00079291,25:06.1
0.0021884,-0.00010828,0.0081443,-0.00058833,-0.00085111,25:06.1
0.0024113,-0.00010233,0.0081267,-0.00067646,-0.00094407,25:06.1
0.0026486,-9.31E-05,0.0081164,-0.00074857,-0.0010395,25:06.1
0.0027014,-7.36E-05,0.0081429,-0.00076316,-0.0010501,25:06.1
0.00257,-7.15E-05,0.0081855,-0.00072601,-0.0010035,25:06.1
0.0023448,-7.52E-05,0.0082534,-0.00065138,-0.00092247,25:06.1
0.0020405,-6.80E-05,0.0083456,-0.00055163,-0.00081291,25:06.1
0.0017554,-6.93E-05,0.008421,-0.00046718,-0.00072774,25:06.1
0.001631,-6.33E-05,0.0084705,-0.00043294,-0.0006857,25:06.1
0.0016633,-4.82E-05,0.0085023,-0.00044999,-0.00069825,25:06.1
0.0017931,-3.78E-05,0.0085224,-0.00050086,-0.00075465,25:06.1
0.0019874,-2.34E-05,0.0085314,-0.00055683,-0.00081195,25:06.1
0.0021334,-1.25E-05,0.0085438,-0.00060014,-0.00085517,25:06.1
0.0021325,-1.05E-05,0.0085811,-0.00060496,-0.00085715,25:06.2
0.0019363,-1.52E-05,0.0086459,-0.00054337,-0.00078657,25:06.2
0.0016015,-2.22E-05,0.0087315,-0.00044474,-0.00067873,25:06.2
0.0012724,-2.37E-05,0.0088186,-0.00033357,-0.00056446,25:06.2
0.00095369,-1.74E-05,0.0088882,-0.00022148,-0.00044713,25:06.2
0.00072548,8.49E-07,0.0089245,-0.00016432,-0.00038298,25:06.2
0.00069903,2.06E-05,0.0089393,-0.00017167,-0.00038338,25:06.2
0.00077468,3.05E-05,0.0089435,-0.00019795,-0.00039775,25:06.2
0.00087778,3.85E-05,0.0089209,-0.00023452,-0.0004334,25:06.2
0.0009571,4.73E-05,0.0088998,-0.00026791,-0.00046951,25:06.2
0.0009112,5.49E-05,0.0089009,-0.0002441,-0.00043966,25:06.2
0.00067643,6.32E-05,0.0089093,-0.00015971,-0.0003551,25:06.2
0.00030968,7.09E-05,0.00892,-4.59E-05,-0.00023676,25:06.2
-8.06E-05,8.04E-05,0.0089237,9.04E-05,-8.55E-05,25:06.2
-0.0004636,9.80E-05,0.0089142,0.00020422,3.56E-05,25:06.2
-0.00069536,0.00011825,0.0088722,0.00025843,9.59E-05,25:06.2
-0.0007095,0.00013672,0.0087922,0.00027482,0.00012825,25:06.2
-0.00068374,0.00014796,0.0086926,0.00026469,0.00012728,25:06.2
-0.00061803,0.00015261,0.0085814,0.00022862,9.33E-05,25:06.2
-0.0005292,0.00017107,0.0084718,0.0002082,7.63E-05,25:06.2
-0.00062373,0.00019056,0.0083859,0.00024881,0.00011109,25:06.2
-0.00089143,0.00020435,0.008338,0.00033338,0.00020066,25:06.2
-0.0012489,0.00022769,0.0083137,0.00044802,0.00033192,25:06.2
-0.0016765,0.00024603,0.0082882,0.00059099,0.00047699,25:06.2
-0.0020618,0.00026916,0.0082502,0.00071519,0.00061191,25:06.2
-0.0023043,0.0002834,0.0081984,0.00079042,0.00069983,25:06.2
-0.0023948,0.00028088,0.008117,0.00081598,0.00071877,25:06.2
-0.0023802,0.0003094,0.0080081,0.0008093,0.00071232,25:06.2
-0.0023183,0.0003309,0.0079189,0.00080579,0.00072131,25:06.2
-0.002299,0.00034054,0.0078386,0.0008094,0.00074233,25:06.2
-0.0024066,0.00038958,0.0077611,0.00083892,0.00079096,25:06.2
-0.0026963,0.00042599,0.0077232,0.00093575,0.00090164,25:06.2
-0.0031112,0.00043595,0.0076979,0.0010639,0.0010495,25:06.2
-0.003482,0.00045154,0.0076625,0.0011848,0.0011967,25:06.2
-0.0038266,0.00046607,0.0076156,0.0013056,0.0013342,25:06.2
-0.0041052,0.00047981,0.0075521,0.0013714,0.0014265,25:06.2
-0.0041624,0.00049423,0.0074562,0.0013616,0.0014629,25:06.2
-0.0041016,0.00051592,0.0073221,0.0013407,0.0014677,25:06.2
-0.0040267,0.00053406,0.0071973,0.0013089,0.0014421,25:06.2
-0.0039536,0.00054198,0.0070847,0.0012669,0.0014142,25:06.2
-0.0039861,0.00055136,0.0069943,0.0012775,0.0014444,25:06.2
-0.0041939,0.00055683,0.0069665,0.0013414,0.0015253,25:06.2
-0.0044959,0.00056434,0.0069526,0.0014261,0.0016228,25:06.2
-0.0048103,0.00057079,0.0069394,0.0015203,0.0017469,25:06.2
-0.0051072,0.00056215,0.0069349,0.0015856,0.0018447,25:06.2
-0.0052402,0.00054531,0.0068824,0.0016046,0.0018653,25:06.2
-0.0051815,0.00053146,0.0068007,0.0015861,0.001848,25:06.2
-0.0050384,0.00051907,0.0067139,0.001527,0.0018018,25:06.2
-0.0048347,0.00050389,0.00662,0.0014463,0.001726,25:06.2
-0.0046624,0.00050117,0.0065475,0.0013788,0.0016611,25:06.2
-0.0046259,0.00050693,0.0064637,0.0013594,0.0016382,25:06.3
-0.0047176,0.00050344,0.0063933,0.0013871,0.001666,25:06.3
-0.0048791,0.00049672,0.0063821,0.0014384,0.0017318,25:06.3
-0.0050678,0.00048645,0.0063662,0.0014966,0.0017933,25:06.3
-0.0051886,0.00046939,0.0063413,0.0015234,0.0018135,25:06.3
-0.0051331,0.0004488,0.0063101,0.0015028,0.0017825,25:06.3
-0.0049485,0.00043237,0.0062331,0.0014237,0.0016876,25:06.3
-0.0046382,0.0004258,0.0061607,0.0012967,0.0015592,25:06.3
-0.0042007,0.00042229,0.0061222,0.0011762,0.0014204,25:06.3
-0.0038027,0.00041013,0.0060758,0.0010528,0.0012699,25:06.3
-0.0035967,0.00039011,0.0060472,0.00096204,0.0011896,25:06.3
-0.0036597,0.00038669,0.0060858,0.00098316,0.0012229,25:06.3
-0.0038775,0.0003924,0.006154,0.0010506,0.0012871,25:06.3
-0.0040537,0.00039667,0.0062091,0.0011025,0.0013262,25:06.3
-0.0041718,0.00041255,0.0062522,0.0011477,0.0013706,25:06.3
-0.0041655,0.00040814,0.0062644,0.0011264,0.0013653,25:06.3
-0.0039384,0.00039276,0.0062379,0.0010296,0.0012587,25:06.3
-0.0036048,0.0004036,0.0061951,0.00093226,0.0011603,25:06.3
-0.0032443,0.00040813,0.00614,0.00082022,0.0010596,25:06.3
-0.0028748,0.00039593,0.0060758,0.00069403,0.00090753,25:06.3
-0.002651,0.00038758,0.0060342,0.00062911,0.00080572,25:06.3
-0.0026097,0.00038349,0.006011,0.00061633,0.00077636,25:06.3
-0.0026128,0.0003758,0.0059643,0.00061811,0.00077236,25:06.3
-0.0026422,0.00036711,0.0059146,0.00063435,0.00078019,25:06.3
-0.0026737,0.00037082,0.0058714,0.00063977,0.00078982,25:06.3
-0.0025676,0.00037354,0.0057974,0.0006028,0.00075474,25:06.3
-0.0023334,0.00036241,0.0056829,0.00052585,0.00066247,25:06.3
-0.0020473,0.00034718,0.0055202,0.00042856,0.00057344,25:06.3
-0.0017244,0.00034022,0.0053399,0.00031817,0.00048313,25:06.3
-0.0014695,0.00033847,0.0051476,0.00022418,0.00039698,25:06.3
-0.0013691,0.00031817,0.0049397,0.00018931,0.00036492,25:06.3
-0.0013755,0.00029293,0.0047535,0.0001969,0.00037386,25:06.3
-0.0014241,0.00027909,0.0045544,0.00021408,0.00038978,25:06.3
-0.0015057,0.00025227,0.0043296,0.00023248,0.00036929,25:06.3
-0.0014933,0.0002314,0.0040714,0.00022103,0.0003173,25:06.3
-0.0012733,0.0002331,0.0037635,0.00015085,0.00026077,25:06.3
-0.00097269,0.00021709,0.0034132,2.54E-05,0.00014661,25:06.3
-0.00058433,0.00019768,0.0030243,-0.00013115,-6.92E-06,25:06.3
-0.00011976,0.00018619,0.0026631,-0.00026899,-0.00015944,25:06.3
0.00023016,0.00014468,0.0023175,-0.00035589,-0.00033325,25:06.3
0.00044889,0.0001073,0.0019693,-0.0003882,-0.00043573,25:06.3
0.00050599,6.25E-05,0.0016462,-0.00036499,-0.00045666,25:06.3
0.00041146,-8.04E-06,0.0013244,-0.00030754,-0.00048757,25:06.3
0.00029273,-2.85E-05,0.00097104,-0.00024087,-0.00047897,25:06.3
0.00015111,-5.32E-05,0.0005438,-0.00016308,-0.00044519,25:06.3
4.26E-05,-9.06E-05,0.0001702,-9.03E-05,-0.00044138,25:06.3
0.00010236,-3.44E-05,-7.05E-05,-7.02E-05,-0.00045587,25:06.3
0.00025108,6.05E-05,-0.0004081,-8.63E-05,-0.00049906,25:06.3
0.00032777,0.00014573,-0.0008744,-9.16E-05,-0.00052219,25:06.3
0.0003541,0.00023196,-0.0013378,-9.31E-05,-0.00045619,25:06.3
0.00021426,0.0003392,-0.0019689,-5.46E-05,-0.00026916,25:06.4
-0.00018658,0.00049558,-0.0026861,4.90E-05,-2.10E-05,25:06.4
-0.00058458,0.00065235,-0.003294,0.00014634,0.00022705,25:06.4
-0.00093836,0.00081041,-0.0039391,0.00018865,0.00049633,25:06.4
-0.0012777,0.00097608,-0.0044283,0.00013135,0.00071269,25:06.4
-0.001399,0.001164,-0.0047938,-4.14E-05,0.00088507,25:06.4
-0.0013403,0.0013525,-0.0052587,-0.00026944,0.001048,25:06.4
-0.0011893,0.0014037,-0.0055389,-0.00054497,0.0010825,25:06.4
-0.00095946,0.0014156,-0.005731,-0.00082105,0.0010414,25:06.4
-0.00082901,0.0014436,-0.0058799,-0.00097996,0.0010197,25:06.4
-0.00089843,0.0012875,-0.0059418,-0.0010331,0.00099236,25:06.4
-0.0011331,0.0010358,-0.0062522,-0.0010548,0.0009972,25:06.4
-0.0014834,0.0008148,-0.0065643,-0.0010425,0.0010324,25:06.4
-0.0018541,0.0005249,-0.0068262,-0.00094877,0.0010394,25:06.4
-0.0022201,0.00018555,-0.007298,-0.000808,0.0010308,25:06.4
-0.002574,-0.00013982,-0.0076621,-0.00069947,0.0010277,25:06.4
-0.0028108,-0.00038422,-0.0081422,-0.00060462,0.00098638,25:06.4
-0.0028798,-0.00047095,-0.0088251,-0.00053289,0.00088853,25:06.4
-0.002863,-0.0005103,-0.0089326,-0.00048779,0.00078847,25:06.4
-0.0028911,-0.00057662,-0.0086663,-0.00040398,0.00074207,25:06.4
-0.0030075,-0.00058113,-0.0086017,-0.00028902,0.00076997,25:06.4
-0.003248,-0.00055077,-0.0084646,-0.00012276,0.00084587,25:06.4
-0.0036015,-0.00055615,-0.0082484,8.46E-05,0.00093007,25:06.4
-0.0038939,-0.0005796,-0.0081529,0.00024982,0.0010042,25:06.4
-0.004108,-0.0006014,-0.0080726,0.00037966,0.0010744,25:06.4
-0.0042312,-0.00059179,-0.0080328,0.00046294,0.0011309,25:06.4
-0.0041295,-0.00056869,-0.0080403,0.00048864,0.0011215,25:06.4
-0.0039211,-0.00056776,-0.0080721,0.00049496,0.0010631,25:06.4
-0.0037532,-0.00056738,-0.0081572,0.00048106,0.0010153,25:06.4
-0.0036533,-0.00057879,-0.0082832,0.00047767,0.00098047,25:06.4
-0.0036967,-0.00060197,-0.0085309,0.00051244,0.00098319,25:06.4
-0.0038935,-0.00060732,-0.0087078,0.00057714,0.0010453,25:06.4
-0.0041189,-0.0006233,-0.0087694,0.00066523,0.0011207,25:06.4
-0.0042271,-0.00064985,-0.0090202,0.00071993,0.0011704,25:06.4
-0.0041826,-0.00064394,-0.0092407,0.0006998,0.0011662,25:06.4
-0.0040449,-0.00064107,-0.009423,0.00065138,0.0011132,25:06.4
-0.0038822,-0.00067196,-0.0097632,0.00061729,0.0010673,25:06.4
-0.0036615,-0.00068014,-0.0099355,0.00055437,0.00099949,25:06.4
-0.0033928,-0.00065556,-0.010012,0.00046181,0.00089477,25:06.4
-0.0032476,-0.00064821,-0.010219,0.00042999,0.00084785,25:06.4
-0.003249,-0.00065048,-0.010424,0.00044909,0.00086376,25:06.4
-0.0033195,-0.00062778,-0.010631,0.00047948,0.00090672,25:06.4
-0.0034703,-0.00060091,-0.010861,0.00054124,0.0009758,25:06.4
-0.0036469,-0.00058857,-0.011062,0.0005835,0.001021,25:06.4
-0.0036822,-0.000562,-0.011191,0.00057948,0.0010276,25:06.4
-0.0035294,-0.00051984,-0.011282,0.00055039,0.00099879,25:06.4
-0.0033088,-0.0004745,-0.01145,0.00046815,0.00091754,25:06.4
-0.0030123,-0.00043454,-0.011645,0.00035682,0.00081672,25:06.4
-0.0026803,-0.00042044,-0.0118,0.0002668,0.00073309,25:06.4
-0.0024828,-0.00039985,-0.012006,0.00020136,0.00067879,25:06.4
-0.0024298,-0.00036477,-0.012203,0.00018505,0.00067008,25:06.5
-0.0025423,-0.00034802,-0.012355,0.00023089,0.0007205,25:06.5
-0.0027895,-0.0003331,-0.012578,0.00030697,0.00080686,25:06.5
-0.0030238,-0.00031999,-0.012851,0.00039325,0.00089496,25:06.5
-0.0031961,-0.00031041,-0.013187,0.0004677,0.0009674,25:06.5
-0.0032256,-0.0002935,-0.013566,0.00047596,0.0009724,25:06.5
-0.0030574,-0.000277,-0.013795,0.00041506,0.00090082,25:06.5
-0.0028003,-0.00025339,-0.013943,0.00034354,0.00081988,25:06.5
-0.0025481,-0.00023069,-0.014213,0.00026702,0.00074646,25:06.5
-0.0023391,-0.00022078,-0.014443,0.00019265,0.00068285,25:06.5
-0.002255,-0.00021263,-0.014491,0.00017183,0.00067847,25:06.5
-0.0023271,-0.00020573,-0.01452,0.0002007,0.00072327,25:06.5
-0.0024345,-0.00020566,-0.014548,0.00024267,0.00076325,25:06.5
-0.002497,-0.00020283,-0.014545,0.00027254,0.00080394,25:06.5
-0.0024929,-0.00018572,-0.014529,0.00026622,0.00079956,25:06.5
-0.0023278,-0.00016706,-0.014486,0.00021497,0.00071487,25:06.5
-0.0020261,-0.00016833,-0.014455,0.00012679,0.00063628,25:06.5
-0.0016834,-0.00017557,-0.014329,1.62E-05,0.0005309,25:06.5
-0.0013446,-0.00016566,-0.014101,-8.17E-05,0.00038222,25:06.5
-0.0011352,-0.00015593,-0.013802,-0.00013308,0.00032479,25:06.5
-0.0011002,-0.00015493,-0.013358,-0.00014533,0.00034842,25:06.5
-0.0011637,-0.00015995,-0.012946,-0.00011223,0.00040245,25:06.5
-0.0012943,-0.00016898,-0.012564,-4.33E-05,0.00047739,25:06.5
-0.0014355,-0.00015914,-0.012071,1.05E-06,0.00052119,25:06.5
-0.0014572,-0.00014564,-0.011596,9.16E-06,0.00053474,25:06.5
-0.0013205,-0.00013851,-0.011182,-9.74E-06,0.00051673,25:06.5
-0.0011213,-0.00012633,-0.010809,-6.92E-05,0.00045852,25:06.5
-0.00085461,-0.00012501,-0.010482,-0.00015093,0.00037272,25:06.5
-0.00056225,-0.00011712,-0.010142,-0.00021813,0.00030047,25:06.5
-0.0004079,-0.00010073,-0.0098044,-0.00025521,0.00028548,25:06.5
-0.00037628,-0.00010179,-0.0095156,-0.00025586,0.00029883,25:06.5
-0.00046327,-0.00010351,-0.0092111,-0.00020477,0.00035375,25:06.5
-0.0006688,-0.00010036,-0.0088754,-0.00012775,0.00044765,25:06.5
-0.00080838,-9.01E-05,-0.0085665,-7.43E-05,0.00050981,25:06.5
-0.00083101,-6.41E-05,-0.0082762,-4.89E-05,0.00053694,25:06.5
-0.00077678,-4.44E-05,-0.0080052,-6.65E-05,0.00052297,25:06.5
-0.00057793,-3.72E-05,-0.0077671,-0.00013683,0.00045804,25:06.5
-0.00029284,-2.69E-05,-0.0075691,-0.00020859,0.00038514,25:06.5
-6.00E-05,-5.81E-06,-0.0073713,-0.00026279,0.00033152,25:06.5
9.63E-05,1.89E-05,-0.0071317,-0.00030096,0.00030128,25:06.5
0.0001055,3.89E-05,-0.0068817,-0.00028251,0.00031123,25:06.5
-4.72E-05,6.06E-05,-0.0066347,-0.00022073,0.0003645,25:06.5
-0.00020853,6.78E-05,-0.0063845,-0.00015845,0.00043367,25:06.5
-0.00033962,6.41E-05,-0.0061339,-9.13E-05,0.00050104,25:06.5
-0.00040907,8.37E-05,-0.005924,-6.57E-05,0.00052755,25:06.5
-0.00031034,0.00010618,-0.0057532,-0.00011109,0.00049229,25:06.5
-8.68E-05,0.0001168,-0.0055636,-0.00016144,0.00042925,25:06.5
0.00018578,0.0001291,-0.0053826,-0.00022389,0.00033781,25:06.5
0.00044358,0.00013281,-0.0052279,-0.00030598,0.00024319,25:06.5
0.0005781,0.00014067,-0.005066,-0.00033003,0.00020064,25:06.5
0.00056071,0.00014658,-0.0048801,-0.00030073,0.00019972,25:06.6
0.00044648,0.0001406,-0.0046854,-0.00023938,0.00022813,25:06.6
0.0002711,0.00016057,-0.0045185,-0.00014843,0.00028761,25:06.6
0.00010181,0.00018226,-0.004348,-8.42E-05,0.00033423,25:06.6
7.42E-05,0.00018255,-0.0041723,-5.96E-05,0.0003274,25:06.6
0.00018492,0.00019281,-0.0040445,-7.30E-05,0.00027876,25:06.6
0.0003951,0.00019774,-0.0039148,-0.00012482,0.00019903,25:06.6
0.00070618,0.00019861,-0.003777,-0.00018166,8.93E-05,25:06.6
0.00095016,0.00020475,-0.0036466,-0.00022886,-2.33E-05,25:06.6
0.0010481,0.00019492,-0.0034672,-0.00024396,-9.81E-05,25:06.6
0.0010579,0.00019015,-0.0032745,-0.0002175,-0.00010566,25:06.6
0.00095178,0.0001979,-0.0030478,-0.00016029,-5.83E-05,25:06.6
0.00076168,0.00018742,-0.0027531,-8.61E-05,2.83E-06,25:06.6
0.00062343,0.00016767,-0.0025086,-2.93E-05,4.63E-05,25:06.6
0.00061787,0.00016656,-0.0023131,-9.88E-06,4.68E-05,25:06.6
0.00071739,0.00017071,-0.0020689,-4.71E-05,-1.64E-05,25:06.6
0.00093553,0.00016384,-0.0018331,-0.00012435,-0.00012411,25:06.6
0.0012422,0.00015412,-0.0016695,-0.00020575,-0.0002346,25:06.6
0.0014918,0.00014553,-0.0015129,-0.0002934,-0.00033094,25:06.6
0.0016376,0.00014488,-0.0013274,-0.00034773,-0.00039174,25:06.6
0.0016289,0.000142,-0.0011192,-0.00033916,-0.00039928,25:06.6
0.0014691,0.00012764,-0.00089319,-0.00029935,-0.00036941,25:06.6
0.0013044,0.00011649,-0.00066317,-0.0002473,-0.00032208,25:06.6
0.0011662,0.00010358,-0.00043832,-0.00019977,-0.00028315,25:06.6
0.0011063,8.46E-05,-0.0002553,-0.00019905,-0.00029216,25:06.6
0.0012262,6.58E-05,-7.98E-05,-0.00025076,-0.00035915,25:06.6
0.0014729,4.85E-05,0.00013825,-0.00031367,-0.00044613,25:06.6
0.0017636,3.57E-05,0.00036007,-0.00040144,-0.00053926,25:06.6
0.0020264,2.86E-05,0.00060561,-0.00050232,-0.00064738,25:06.6
0.0021648,1.23E-05,0.00091461,-0.00053561,-0.00071178,25:06.6
0.0021437,-2.80E-05,0.0012358,-0.00051162,-0.00071029,25:06.6
0.0020275,-5.96E-05,0.0015404,-0.00046654,-0.00070409,25:06.6
0.0018663,-7.89E-05,0.001821,-0.00039672,-0.00067684,25:06.6
0.0017104,-0.0001129,0.0020444,-0.00034205,-0.00063382,25:06.6
0.0017219,-0.00013284,0.0022497,-0.00033404,-0.00065305,25:06.6
0.0019106,-0.0001437,0.0024469,-0.00036878,-0.00072342,25:06.6
0.0021826,-0.00016211,0.0026122,-0.00044545,-0.00082632,25:06.6
0.0025381,-0.00017385,0.0027913,-0.00054243,-0.00095145,25:06.6
0.0028292,-0.00019742,0.0029609,-0.00061856,-0.0010566,25:06.6
0.0029455,-0.00022061,0.0031107,-0.00064642,-0.0011288,25:06.6
0.0029524,-0.00023449,0.0032726,-0.00063179,-0.0011375,25:06.6
0.0028567,-0.00025523,0.0034101,-0.00058786,-0.0010928,25:06.6
0.0026831,-0.00026399,0.003542,-0.00052277,-0.0010467,25:06.6
0.0025634,-0.00027786,0.003664,-0.00047616,-0.0010073,25:06.6
0.0025953,-0.00029895,0.0037353,-0.00047522,-0.0010089,25:06.6
0.002739,-0.00031017,0.0037806,-0.00051851,-0.0010725,25:06.6
0.0029875,-0.00033691,0.0037417,-0.00059895,-0.0011618,25:06.6
0.0033211,-0.00034829,0.0036335,-0.00068802,-0.0012656,25:06.6
0.003576,-0.00034588,0.0035725,-0.00076804,-0.0013611,25:06.6
0.0036876,-0.00036866,0.0035659,-0.00079866,-0.0013932,25:06.6
0.003633,-0.00037773,0.0036393,-0.00075702,-0.0013666,25:06.7
0.0034306,-0.00038881,0.0037678,-0.00070111,-0.001321,25:06.7
0.003241,-0.00041825,0.0038857,-0.00063802,-0.0012547,25:06.7
0.0031016,-0.00042027,0.0039829,-0.0005655,-0.0011874,25:06.7
0.0030455,-0.0004138,0.0040112,-0.00055448,-0.0011831,25:06.7
0.0031698,-0.00041971,0.0040099,-0.00060615,-0.0012378,25:06.7
0.0034063,-0.00042741,0.003995,-0.00066697,-0.0013034,25:06.7
0.0036689,-0.00043214,0.0039183,-0.00074671,-0.0013932,25:06.7
0.0039065,-0.00043896,0.0038421,-0.00083141,-0.0014928,25:06.7
0.0040151,-0.00045621,0.0038104,-0.00085267,-0.0015284,25:06.7
0.0039448,-0.00046053,0.0038071,-0.00081954,-0.001505,25:06.7
0.003769,-0.00046484,0.0037846,-0.0007717,-0.0014653,25:06.7
0.0035562,-0.00048233,0.0037217,-0.00070224,-0.0014018,25:06.7
0.003364,-0.00048385,0.0036384,-0.00064395,-0.0013428,25:06.7
0.0033473,-0.00048432,0.0035085,-0.00064794,-0.0013406,25:06.7
0.0035055,-0.00048878,0.003329,-0.0007019,-0.0013875,25:06.7
0.0037304,-0.00048992,0.0031466,-0.00078034,-0.001472,25:06.7
0.0040324,-0.00049195,0.0029854,-0.00088282,-0.0015734,25:06.7
0.0042884,-0.00049368,0.0027745,-0.00096618,-0.0016514,25:06.7
0.0043632,-0.00050993,0.0025462,-0.00098649,-0.001689,25:06.7
0.0043013,-0.00051397,0.0024932,-0.0009697,-0.0016618,25:06.7
0.004131,-0.0005003,0.0025923,-0.00091872,-0.0015909,25:06.7
0.0038903,-0.00049953,0.002718,-0.00083871,-0.0015206,25:06.7
0.0037043,-0.00049156,0.0028946,-0.00078118,-0.0014599,25:06.7
0.0036779,-0.00048459,0.0031102,-0.00076569,-0.0014418,25:06.7
0.0037941,-0.00049544,0.0032616,-0.00080526,-0.0014717,25:06.7
0.0040114,-0.00050024,0.0033135,-0.00089188,-0.001536,25:06.7
0.0042912,-0.00049264,0.0033316,-0.00098202,-0.0016238,25:06.7
0.0045138,-0.00048142,0.0033593,-0.0010589,-0.0016878,25:06.7
0.0045902,-0.00048067,0.0033861,-0.0010951,-0.0017052,25:06.7
0.0044855,-0.00048215,0.0034106,-0.0010656,-0.0016694,25:06.7
0.0042491,-0.00047436,0.0034542,-0.0010047,-0.0015932,25:06.7
0.0040171,-0.00047189,0.0034948,-0.00094154,-0.0015149,25:06.7
0.0038292,-0.00046008,0.0035051,-0.00088291,-0.0014422,25:06.7
0.0037405,-0.00044073,0.0035156,-0.00087292,-0.0014094,25:06.7
0.0038528,-0.00043589,0.0035164,-0.00092846,-0.0014555,25:06.7
0.0040728,-0.00042688,0.0034963,-0.0010021,-0.0015283,25:06.7
0.0042823,-0.00042185,0.0034749,-0.0010809,-0.0015939,25:06.7
0.004473,-0.00042391,0.0034542,-0.0011548,-0.0016583,25:06.7
0.0045033,-0.00040626,0.003445,-0.0011713,-0.0016609,25:06.7
0.0043195,-0.00039364,0.0034432,-0.0011247,-0.0015993,25:06.7
0.004107,-0.00038849,0.0034661,-0.0010525,-0.0015222,25:06.7
0.0038668,-0.00036065,0.0035154,-0.00097038,-0.0014143,25:06.7
0.0036045,-0.00033202,0.0035324,-0.0009006,-0.0013355,25:06.7
0.0035339,-0.00031233,0.0035095,-0.00089044,-0.0013285,25:06.7
0.0036444,-0.00029244,0.0034784,-0.00093236,-0.0013367,25:06.7
0.0038091,-0.00028008,0.003438,-0.00099302,-0.0013841,25:06.7
0.0040168,-0.00026147,0.0033971,-0.0010782,-0.0014625,25:06.7
0.0041731,-0.00024332,0.0034067,-0.0011353,-0.0014954,25:06.7
0.0041554,-0.00024122,0.0034653,-0.0011223,-0.00148,25:06.7
0.0039739,-0.00022404,0.0035274,-0.0010786,-0.0014113,25:06.8
0.0036932,-0.00019351,0.0035871,-0.001003,-0.0013027,25:06.8
0.0033652,-0.00017656,0.003638,-0.00090285,-0.0012028,25:06.8
0.0030976,-0.00015922,0.0036892,-0.00082271,-0.0011153,25:06.8
0.0029942,-0.00013841,0.0037396,-0.00078673,-0.0010634,25:06.8
0.0030379,-0.00012111,0.0037651,-0.00081202,-0.0010837,25:06.8
0.0031796,-0.0001028,0.0037822,-0.00087353,-0.0011421,25:06.8
0.0033564,-8.89E-05,0.0037966,-0.00092508,-0.0011823,25:06.8
0.0034629,-8.34E-05,0.0038105,-0.00095393,-0.0011992,25:06.8
0.0034168,-8.05E-05,0.0038438,-0.000946,-0.0011834,25:06.8
0.0031782,-6.73E-05,0.0038862,-0.0008792,-0.0011,25:06.8
0.0028307,-5.40E-05,0.003914,-0.00077212,-0.00097892,25:06.8
0.0024864,-5.06E-05,0.0039439,-0.00065865,-0.00085927,25:06.8
0.0021852,-3.70E-05,0.0039797,-0.00056293,-0.00075084,25:06.8
0.0020318,-2.15E-05,0.0039719,-0.00052394,-0.00070449,25:06.8
0.0020818,-1.35E-05,0.00393,-0.00053957,-0.00072255,25:06.8
0.0022062,-1.04E-05,0.0038865,-0.00057393,-0.00075438,25:06.8
0.0023135,-2.19E-05,0.0038379,-0.00061766,-0.00079999,25:06.8
0.0024089,-2.71E-05,0.0037659,-0.00064806,-0.00082524,25:06.8
0.0023308,-1.92E-05,0.0036884,-0.00062691,-0.0007768,25:06.8
0.002022,-1.85E-05,0.0036702,-0.00054481,-0.00068226,25:06.8
0.001712,-1.82E-05,0.0035916,-0.0004265,-0.00056168,25:06.8
0.0013886,-2.79E-07,0.0033816,-0.00030831,-0.00042347,25:06.8
0.0010288,2.30E-05,0.0031931,-0.00022295,-0.00031513,25:06.8
0.00086093,2.48E-05,0.0030464,-0.00018562,-0.00026831,25:06.8
0.00088954,2.50E-05,0.00288,-0.00017843,-0.00027324,25:06.8
0.00097045,3.05E-05,0.0025964,-0.00019716,-0.00030025,25:06.8
0.0010756,2.27E-05,0.0021993,-0.00023504,-0.00033172,25:06.8
0.0011463,2.44E-05,0.001904,-0.0002407,-0.00034194,25:06.8
0.0010292,3.73E-05,0.0017131,-0.00019801,-0.00030018,25:06.8
0.00072367,4.59E-05,0.001452,-0.00010854,-0.00019045,25:06.8
0.00034418,4.98E-05,0.0010974,2.23E-05,-4.46E-05,25:06.8
-8.19E-05,5.44E-05,0.00073057,0.00014298,7.94E-05,25:06.8
-0.00044548,6.97E-05,0.00038138,0.00024501,0.0001983,25:06.8
-0.00063242,7.54E-05,1.61E-05,0.00032612,0.00028662,25:06.8
-0.00065971,8.56E-05,-0.00031373,0.00033934,0.00029006,25:06.8
-0.00056562,0.00011808,-0.00056293,0.00029827,0.00026609,25:06.8
-0.00043348,0.00013165,-0.00085768,0.00025762,0.00024604,25:06.8
-0.00034413,0.00012651,-0.0011387,0.0002304,0.00021954,25:06.8
-0.00038608,0.00013822,-0.001179,0.00023508,0.00023285,25:06.8
-0.0006401,0.00016521,-0.0011077,0.00031259,0.00032283,25:06.8
-0.00099813,0.00017348,-0.0011044,0.00043196,0.00044773,25:06.8
-0.0013508,0.00017868,-0.0011102,0.00054744,0.00057225,25:06.8
-0.0016687,0.00020984,-0.0011406,0.0006569,0.00069223,25:06.8
-0.0018099,0.00022916,-0.0012116,0.00070598,0.00074377,25:06.8
-0.0017219,0.00024747,-0.0012359,0.00067448,0.00071865,25:06.8
-0.001567,0.0002693,-0.0012668,0.00062755,0.00068327,25:06.8
-0.0014231,0.00025912,-0.0013661,0.00056464,0.00061766,25:06.8
-0.0012456,0.00024746,-0.0013864,0.00048782,0.00053324,25:06.8
-0.0012494,0.00024181,-0.0013379,0.00048834,0.00053797,25:06.8
-0.0015886,0.00024269,-0.0012947,0.00058123,0.00064158,25:06.9
-0.0019897,0.00025687,-0.0011708,0.00071196,0.000793,25:06.9
-0.0023916,0.00026074,-0.0010412,0.00085105,0.00095824,25:06.9
-0.0027685,0.00027538,-0.00094364,0.00093919,0.0010579,25:06.9
-0.00286,0.00030404,-0.00085168,0.00094808,0.0010739,25:06.9
-0.0027398,0.00032367,-0.0008192,0.00090184,0.0010394,25:06.9
-0.0025423,0.00033895,-0.00075894,0.00081819,0.00096825,25:06.9
-0.0022965,0.00033844,-0.0006594,0.00074053,0.00090021,25:06.9
-0.0021353,0.00032471,-0.0005745,0.00069358,0.00084926,25:06.9
-0.0021298,0.000326,-0.00045872,0.00067809,0.00083494,25:06.9
-0.0022637,0.00034043,-0.00034298,0.00071076,0.00087685,25:06.9
-0.0024534,0.00034307,-0.00023913,0.00077064,0.00093849,25:06.9
-0.0026611,0.00032717,-0.00012739,0.00082591,0.00099522,25:06.9
-0.0028108,0.00032373,-3.97E-05,0.0008568,0.001028,25:06.9
-0.0027736,0.00034757,1.42E-05,0.00083357,0.0010109,25:06.9
-0.0026037,0.00035501,3.53E-05,0.00075896,0.00093332,25:06.9
-0.0023355,0.00034025,4.03E-05,0.00065842,0.00082181,25:06.9
-0.0020055,0.00033198,4.39E-05,0.00056114,0.00072038,25:06.9
-0.0017577,0.00032025,5.40E-05,0.00048987,0.00062704,25:06.9
-0.0016409,0.00031588,7.98E-05,0.00045486,0.0005714,25:06.9
-0.0016759,0.00031725,0.00011757,0.00048078,0.00060022,25:06.9
-0.0018266,0.00029408,0.00015857,0.00054154,0.0006461,25:06.9
-0.0019487,0.00026726,0.00016767,0.00058458,0.00065599,25:06.9
-0.0019841,0.00025307,0.0001618,0.00061078,0.00065015,25:06.9
-0.0019002,0.00024095,0.00014824,0.00057829,0.00059343,25:06.9
-0.0015983,0.0002473,9.48E-05,0.00046169,0.00048327,25:06.9
-0.0011768,0.00026221,6.62E-05,0.00034567,0.00035806,25:06.9
-0.00080273,0.00025468,6.27E-05,0.00025347,0.00021898,25:06.9
-0.00046862,0.00024819,5.53E-05,0.00016048,0.00010671,25:06.9
-0.00031529,0.00024791,0.0001008,0.00011598,5.14E-05,25:06.9
-0.00040547,0.00023008,0.00017795,0.0001348,5.35E-05,25:06.9
-0.00052664,0.00021088,0.00027268,0.00018674,0.00010812,25:06.9
-0.00066951,0.00019762,0.00037557,0.00024599,0.00016406,25:06.9
-0.00080693,0.00018562,0.0004365,0.00025548,0.00017264,25:06.9
-0.00074974,0.00017519,0.00048158,0.00021572,0.00013107,25:06.9
-0.00053943,0.00016173,0.00053576,0.00016897,7.36E-05,25:06.9
-0.00029655,0.00014316,0.00058186,9.64E-05,-1.15E-05,25:06.9
-4.32E-05,0.0001261,0.0006047,1.52E-05,-0.00011202,25:06.9
0.00012807,0.00011965,0.00062346,-2.87E-05,-0.0001421,25:06.9
9.20E-05,0.00010099,0.00061818,-2.49E-05,-0.00011714,25:06.9
-0.00012947,6.97E-05,0.00056129,4.56E-05,-3.73E-05,25:06.9
-0.00046633,5.04E-05,0.00053629,0.00015294,0.00011337,25:06.9
-0.00084712,4.00E-05,0.00049057,0.00024597,0.00023099,25:06.9
-0.0011388,4.65E-05,0.00037584,0.00033217,0.00031467,25:06.9
-0.0012892,6.08E-05,0.00033725,0.00039358,0.0003919,25:06.9
-0.0012569,7.05E-05,0.00029875,0.00038426,0.00039287,25:06.9
-0.0010877,9.59E-05,0.00015053,0.00033237,0.00035314,25:06.9
-0.00097648,0.00013488,1.32E-05,0.00029469,0.00034609,25:06.9
-0.0018091,-0.00094978,-0.0034268,0.0013879,0.00047715,25:06.9
-0.0040413,-0.0011556,-0.0036696,0.0024399,0.0011071,25:06.9
-0.0028316,-0.00097406,-0.0035923,0.0017862,0.00079103,25:06.9
-0.0043477,-0.0010369,-0.0037546,0.0024343,0.0012446,25:06.9
-0.0044037,-0.0009548,-0.0037906,0.0023929,0.0013061,25:06.9
-0.0048692,-0.00091361,-0.0038107,0.0025319,0.001475,25:06.9
-0.0054557,-0.00091347,-0.0038467,0.0027585,0.001689,25:06.9
-0.0052952,-0.00086003,-0.0038268,0.0026487,0.0016874,25:06.9
-0.0056792,-0.00084304,-0.0038242,0.0027936,0.0018197,25:06.9
-0.0057586,-0.00077985,-0.0037065,0.0027741,0.0018696,25:06.9
-0.0060551,-0.00073694,-0.003508,0.0028596,0.0020027,25:06.9
-0.0066745,-0.00071879,-0.0032235,0.0030578,0.002233,25:06.9
-0.0074656,-0.00069178,-0.0028753,0.0032541,0.0024909,25:07.0
-0.0083479,-0.0006745,-0.0025086,0.0035737,0.0028241,25:07.0
-0.0090923,-0.00065195,-0.0020833,0.0038348,0.0031223,25:07.0
-0.0099972,-0.00062495,-0.0017234,0.0040793,0.0034175,25:07.0
-0.01065,-0.00060704,-0.0014124,0.0042708,0.0036669,25:07.0
-0.011051,-0.00060507,-0.0010874,0.0043669,0.0038117,25:07.0
-0.011451,-0.00058002,-0.00075617,0.0044533,0.0039202,25:07.0
-0.011772,-0.00057229,-0.00039273,0.0045512,0.0040287,25:07.0
-0.012099,-0.00058795,-6.72E-05,0.004673,0.0041547,25:07.0
-0.012538,-0.00056265,0.00022755,0.0048133,0.0043233,25:07.0
-0.013134,-0.0005521,0.00053556,0.0049852,0.0045264,25:07.0
-0.013728,-0.00055728,0.00081143,0.0051698,0.0047299,25:07.0
-0.014246,-0.00054356,0.00099208,0.0052966,0.0048891,25:07.0
-0.014552,-0.00053772,0.0011287,0.0053551,0.0049816,25:07.0
-0.014569,-0.00052225,0.0012462,0.0053539,0.0050051,25:07.0
-0.014363,-0.00050304,0.0012392,0.0052563,0.0049368,25:07.0
-0.013948,-0.00049543,0.0011832,0.0051034,0.0048056,25:07.0
-0.013575,-0.00049276,0.001068,0.0049638,0.004673,25:07.0
-0.013278,-0.00049378,0.00087303,0.0048346,0.0045604,25:07.0
-0.013037,-0.00048937,0.00073753,0.0047528,0.0044912,25:07.0
-0.013012,-0.00049032,0.00055755,0.0047464,0.0044785,25:07.0
-0.013083,-0.0004948,0.00029753,0.0047587,0.0044802,25:07.0
-0.013092,-0.00049858,3.38E-06,0.0047582,0.0044812,25:07.0
-0.013013,-0.00049795,-0.00032896,0.0047407,0.0044778,25:07.0
-0.012824,-0.00048237,-0.00069608,0.0046592,0.0043821,25:07.0
-0.012429,-0.00047321,-0.0011035,0.0045159,0.0042226,25:07.0
-0.011882,-0.00045531,-0.0014132,0.0043623,0.0040768,25:07.0
-0.011407,-0.00043587,-0.0018048,0.0042146,0.003895,25:07.0
-0.010991,-0.00044774,-0.0023074,0.0041163,0.0037492,25:07.0
-0.01075,-0.00043474,-0.0025399,0.0040801,0.0037072,25:07.0
-0.0108,-0.00041005,-0.0026371,0.0040797,0.0037108,25:07.0
-0.010935,-0.00041929,-0.0027947,0.0041448,0.0037786,25:07.0
-0.011183,-0.00041148,-0.0029615,0.0042621,0.0038942,25:07.0
-0.011524,-0.00038945,-0.0031515,0.0043531,0.0039858,25:07.0
-0.01167,-0.00037519,-0.0033502,0.0043878,0.0040237,25:07.0
-0.011594,-0.00036292,-0.0035833,0.0043705,0.0039953,25:07.0
-0.011346,-0.00036422,-0.0038086,0.0042866,0.0039038,25:07.0
-0.010984,-0.00035677,-0.0040129,0.0041656,0.0037696,25:07.0
-0.010693,-0.00033781,-0.0042235,0.0040661,0.0036611,25:07.0
-0.010551,-0.00033376,-0.0043853,0.0040105,0.003622,25:07.0
-0.010543,-0.00033569,-0.00454,0.0040159,0.0036262,25:07.0
-0.01066,-0.000331,-0.0047291,0.0040559,0.0036481,25:07.0
-0.010808,-0.00032785,-0.0049179,0.0040826,0.0036621,25:07.0
-0.010827,-0.00032885,-0.005077,0.0040841,0.003671,25:07.0
-0.010711,-0.00033574,-0.0051787,0.0040518,0.0036486,25:07.0
-0.010455,-0.00036853,-0.0052246,0.0039886,0.0035248,25:07.0
-0.010048,-0.00040385,-0.0052301,0.0039014,0.0033404,25:07.0
-0.0097176,-0.00042445,-0.0051766,0.0038226,0.0031692,25:07.0
-0.0095109,-0.00047921,-0.005071,0.0037803,0.0030306,25:07.0
-0.0093814,-0.00054624,-0.0049532,0.0037769,0.0029462,25:07.0
-0.0094924,-0.00058432,-0.0047832,0.0038575,0.0029382,25:07.1
-0.0097497,-0.00059168,-0.0045516,0.0039762,0.0030129,25:07.1
-0.0099216,-0.00054706,-0.0043112,0.0040568,0.0030816,25:07.1
-0.010006,-0.0004812,-0.0040764,0.0041219,0.0030928,25:07.1
-0.0099769,-0.00040439,-0.0038955,0.0041218,0.0031123,25:07.1
-0.0097537,-0.00031156,-0.0037677,0.0040611,0.0031232,25:07.1
-0.0094485,-0.00021481,-0.0036579,0.004012,0.0031166,25:07.1
-0.0091834,-4.86E-05,-0.0035682,0.0039482,0.0031332,25:07.1
-0.0089814,0.00018226,-0.0034282,0.0039074,0.0031847,25:07.1
-0.008972,0.00039845,-0.0032409,0.0038955,0.0033167,25:07.1
-0.0091453,0.0005981,-0.0030552,0.0038159,0.0035047,25:07.1
-0.009311,0.00083984,-0.0028047,0.0036981,0.0037225,25:07.1
-0.0094921,0.0010807,-0.0025369,0.0036128,0.0039635,25:07.1
-0.0096634,0.0011775,-0.0023346,0.0034695,0.0041022,25:07.1
-0.0095949,0.0012303,-0.0021524,0.0032429,0.0041383,25:07.1
-0.0093253,0.0013022,-0.0019741,0.0030815,0.0041374,25:07.1
-0.0090325,0.0012134,-0.0017992,0.0029179,0.0040336,25:07.1
-0.0087479,0.0010645,-0.0016381,0.0026908,0.0038902,25:07.1
-0.0086353,0.00091699,-0.001485,0.0025734,0.0038161,25:07.1
-0.0087867,0.0006305,-0.001324,0.0025708,0.0037642,25:07.1
-0.0090806,0.00033815,-0.0012041,0.0026927,0.0037263,25:07.1
-0.0095834,0.00010616,-0.0011622,0.002929,0.0037689,25:07.1
-0.010191,-9.58E-05,-0.0011289,0.0031298,0.0038428,25:07.1
-0.010559,-0.00017598,-0.00095897,0.0033105,0.0038502,25:07.1
-0.010677,-0.00021393,-0.00067442,0.0034271,0.003802,25:07.1
-0.010593,-0.00024357,-0.00036472,0.0034542,0.0036924,25:07.1
-0.01033,-0.00018556,-3.46E-05,0.0034565,0.0035415,25:07.1
-0.010109,-0.00011811,0.00029766,0.0034482,0.0034292,25:07.1
-0.010033,-8.70E-05,0.00063217,0.0035039,0.0033408,25:07.1
-0.010098,-6.83E-05,0.00091478,0.0035082,0.0033282,25:07.1
-0.010345,-3.74E-05,0.0011891,0.0035399,0.0034381,25:07.1
-0.010718,2.48E-05,0.0015278,0.0037897,0.0035741,25:07.1
-0.011047,6.62E-05,0.0018256,0.003984,0.0036846,25:07.1
-0.011257,9.39E-05,0.0020608,0.004055,0.0037365,25:07.1
-0.011336,0.00011671,0.0022615,0.0040916,0.0037204,25:07.1
-0.011212,8.77E-05,0.0024247,0.0040301,0.0036573,25:07.1
-0.010967,5.33E-05,0.0025588,0.0039482,0.0035375,25:07.1
-0.010732,4.55E-05,0.002658,0.0038648,0.0034109,25:07.1
-0.010556,2.96E-05,0.0027618,0.0038093,0.0033418,25:07.1
-0.010589,2.01E-05,0.0028919,0.0038404,0.0033546,25:07.1
-0.010822,3.21E-05,0.0030291,0.0039095,0.0034354,25:07.1
-0.011142,2.10E-05,0.0031788,0.0040131,0.0035335,25:07.1
-0.011493,-8.83E-08,0.0033425,0.0041347,0.0036308,25:07.1
-0.011696,1.48E-05,0.0034491,0.004197,0.00369,25:07.1
-0.011688,1.18E-05,0.003476,0.0041838,0.0036749,25:07.1
-0.011541,-4.33E-06,0.003499,0.0041417,0.0036176,25:07.1
-0.011261,3.03E-06,0.0035011,0.0040622,0.003521,25:07.1
-0.010961,-7.44E-06,0.0034759,0.0039615,0.0034086,25:07.1
-0.010822,-9.84E-06,0.003487,0.0039196,0.0033594,25:07.1
-0.01089,-1.26E-05,0.0035279,0.0039375,0.0033849,25:07.1
-0.011092,-4.25E-05,0.0035945,0.0040243,0.003464,25:07.2
-0.011412,-4.80E-05,0.0036757,0.004167,0.0035885,25:07.2
-0.011784,-4.97E-05,0.0037386,0.0042708,0.0037145,25:07.2
-0.012004,-6.02E-05,0.0037799,0.0043261,0.0037865,25:07.2
-0.012032,-5.68E-05,0.003804,0.0043576,0.0037915,25:07.2
-0.011905,-6.46E-05,0.0038354,0.0043294,0.0037439,25:07.2
-0.011633,-8.00E-05,0.003864,0.004244,0.0036549,25:07.2
-0.011398,-8.71E-05,0.0039044,0.0041747,0.0035595,25:07.2
-0.011329,-9.38E-05,0.0040044,0.0041564,0.0035159,25:07.2
-0.011421,-0.00011469,0.0041234,0.0042019,0.0035625,25:07.2
-0.011722,-0.00013423,0.0042664,0.004329,0.0036727,25:07.2
-0.012175,-0.0001303,0.0044558,0.0044805,0.0037977,25:07.2
-0.012606,-0.0001298,0.0046316,0.004623,0.0039378,25:07.2
-0.012921,-0.00013136,0.0047832,0.0047425,0.0040551,25:07.2
-0.013056,-0.00012902,0.0049199,0.0047836,0.0040938,25:07.2
-0.01297,-0.00015136,0.0050293,0.0047629,0.0040687,25:07.2
-0.012768,-0.00017006,0.0051301,0.0047149,0.0039991,25:07.2
-0.012567,-0.00017419,0.0052332,0.0046604,0.0039149,25:07.2
-0.012473,-0.00018984,0.0053661,0.0046539,0.003886,25:07.2
-0.012645,-0.00019173,0.0055616,0.0047226,0.0039573,25:07.2
-0.013052,-0.00019939,0.0057797,0.0048581,0.0040916,25:07.2
-0.013561,-0.00023219,0.0060066,0.0050395,0.0042499,25:07.2
-0.014082,-0.00024796,0.0062396,0.0052213,0.0044104,25:07.2
-0.014427,-0.0002601,0.0064209,0.0053392,0.0045065,25:07.2
-0.01452,-0.00027019,0.0065466,0.0053729,0.0045396,25:07.2
-0.014451,-0.00027196,0.0066503,0.0053601,0.0045303,25:07.2
-0.014254,-0.00028636,0.0067402,0.0053049,0.0044622,25:07.2
-0.014005,-0.00028995,0.0068337,0.005232,0.0044011,25:07.2
-0.013984,-0.00029562,0.0069845,0.0052341,0.0044004,25:07.2
-0.014248,-0.00031128,0.0071755,0.0053112,0.0044638,25:07.2
-0.014604,-0.00031244,0.0073647,0.0054462,0.0045981,25:07.2
-0.015145,-0.00032121,0.0075792,0.0056634,0.0047886,25:07.2
-0.015795,-0.00033653,0.0077658,0.0058542,0.0049833,25:07.2
-0.016222,-0.00034494,0.0079083,0.0059747,0.0051099,25:07.2
-0.016443,-0.00035594,0.008043,0.0060784,0.0051674,25:07.2
-0.016495,-0.00037402,0.0081322,0.006098,0.0051661,25:07.2
-0.016353,-0.00039411,0.0081953,0.0060478,0.0051161,25:07.2
-0.016228,-0.00040059,0.0082763,0.0060222,0.0050958,25:07.2
-0.016311,-0.00040598,0.0083914,0.0060399,0.0051247,25:07.2
-0.016601,-0.00040781,0.0085303,0.0061614,0.0052273,25:07.2
-0.017101,-0.00038099,0.0086952,0.0063637,0.005417,25:07.2
-0.017793,-0.00037134,0.0089108,0.0065527,0.0056067,25:07.2
-0.018478,-0.00039421,0.0091152,0.0067696,0.0057884,25:07.2
-0.018952,-0.00038953,0.0092752,0.0069657,0.0059548,25:07.2
-0.019183,-0.0003719,0.009409,0.0070304,0.0060441,25:07.2
-0.01919,-0.00036825,0.0095049,0.0070285,0.0060566,25:07.2
-0.019062,-0.00036038,0.0095946,0.0070043,0.0060124,25:07.2
-0.018937,-0.00037079,0.0096935,0.00696,0.0059707,25:07.2
-0.018976,-0.00039311,0.0098064,0.0069747,0.0059962,25:07.2
-0.019331,-0.00040279,0.0099844,0.0070954,0.0060963,25:07.2
-0.019913,-0.00041849,0.010225,0.007296,0.006258,25:07.3
-0.020618,-0.00042695,0.010478,0.007539,0.0064815,25:07.3
-0.02137,-0.00042464,0.010707,0.0077851,0.0067305,25:07.3
-0.021871,-0.00042934,0.010911,0.0079588,0.0068977,25:07.3
-0.022047,-0.00042438,0.011089,0.008023,0.0069652,25:07.3
-0.022048,-0.00040965,0.011223,0.0080219,0.0069734,25:07.3
-0.021884,-0.00039484,0.011343,0.0079686,0.0069077,25:07.3
-0.021664,-0.00039135,0.01147,0.0078985,0.0068437,25:07.3
-0.021701,-0.00039888,0.01165,0.0079204,0.006863,25:07.3
-0.022068,-0.00038341,0.011903,0.0080375,0.0069513,25:07.3
-0.02253,-0.00036253,0.012185,0.008207,0.0071381,25:07.3
-0.023155,-0.00035825,0.012485,0.0084405,0.0073927,25:07.3
-0.023871,-0.00034506,0.01273,0.0086632,0.0075977,25:07.3
-0.024263,-0.00034214,0.012913,0.0087898,0.0077188,25:07.3
-0.024367,-0.00035248,0.013083,0.0088241,0.0077446,25:07.3
-0.024249,-0.00034537,0.013185,0.0087709,0.007674,25:07.3
-0.023885,-0.00033995,0.01325,0.0086583,0.00755,25:07.3
-0.023562,-0.00033513,0.013322,0.0085544,0.0074204,25:07.3
-0.02343,-0.00032006,0.013408,0.0085089,0.0073595,25:07.3
-0.023546,-0.00031548,0.013555,0.0085613,0.0074118,25:07.3
-0.023927,-0.00030901,0.013728,0.0086934,0.0075363,25:07.3
-0.02436,-0.00028994,0.013874,0.0088275,0.0076779,25:07.3
-0.024733,-0.00027856,0.014009,0.00896,0.0078245,25:07.3
-0.024958,-0.00028437,0.014103,0.0090422,0.007899,25:07.3
-0.024775,-0.00028455,0.014104,0.0089712,0.0078056,25:07.3
-0.024265,-0.00026684,0.014051,0.0088078,0.0076276,25:07.3
-0.023704,-0.00025872,0.013969,0.0085949,0.0074172,25:07.3
-0.023072,-0.0002556,0.013878,0.0083502,0.0071643,25:07.3
-0.022509,-0.0002428,0.013828,0.0081903,0.0070058,25:07.3
-0.022254,-0.0002364,0.013821,0.0081266,0.0069644,25:07.3
-0.022222,-0.0002406,0.013832,0.0080978,0.0069225,25:07.3
-0.02224,-0.00024291,0.013848,0.0080928,0.006909,25:07.3
-0.022227,-0.00023056,0.013864,0.0081007,0.006907,25:07.3
-0.022029,-0.00021498,0.013808,0.0079981,0.0067937,25:07.3
-0.021431,-0.00020377,0.013657,0.0077443,0.0065905,25:07.3
-0.020524,-0.0001984,0.013504,0.0074827,0.0062811,25:07.3
-0.019448,-0.00021102,0.013315,0.0071597,0.0058763,25:07.3
-0.018308,-0.000222,0.013094,0.0067515,0.0055395,25:07.3
-0.01738,-0.00022061,0.012931,0.0064391,0.0052575,25:07.3
-0.016739,-0.00021903,0.012806,0.0062115,0.0050059,25:07.3
-0.016305,-0.00021021,0.012701,0.0060271,0.0048426,25:07.3
-0.015974,-0.00018717,0.012618,0.0059167,0.0047455,25:07.3
-0.015568,-0.00016111,0.012536,0.0057677,0.0046119,25:07.3
-0.014866,-0.00014441,0.012391,0.0055191,0.0043508,25:07.3
-0.013872,-0.00012344,0.012149,0.0052182,0.0040425,25:07.3
-0.012633,-9.95E-05,0.011874,0.0048255,0.0036581,25:07.3
-0.011133,-7.91E-05,0.01158,0.0043348,0.0031503,25:07.3
-0.0097867,-4.25E-05,0.011274,0.0038423,0.0026632,25:07.3
-0.0086811,-1.61E-05,0.011042,0.00344,0.0022523,25:07.3
-0.0075794,-2.20E-06,0.010872,0.0031133,0.0019193,25:07.3
-0.0067525,2.79E-05,0.010716,0.0028344,0.0016582,25:07.4
-0.0061401,3.67E-05,0.010599,0.0026384,0.0014535,25:07.4
-0.0053718,4.23E-05,0.010463,0.0024242,0.001236,25:07.4
-0.0044992,6.93E-05,0.010259,0.002101,0.00088547,25:07.4
-0.0032671,7.82E-05,0.010006,0.0016683,0.00043509,25:07.4
-0.0016427,9.43E-05,0.0097308,0.001167,-5.34E-05,25:07.4
-0.00020781,0.00011206,0.0094578,0.00063461,-0.0005993,25:07.4
0.0013385,0.00010544,0.009182,3.65E-05,-0.0011616,25:07.4
0.0030199,0.00011628,0.0089864,-0.00044747,-0.0016749,25:07.4
0.0043557,0.00013335,0.0088599,-0.00082812,-0.0021548,25:07.4
0.005818,0.00014947,0.0086896,-0.0013557,-0.0026304,25:07.4
0.007204,0.00018111,0.0085609,-0.0018105,-0.003023,25:07.4
0.0079198,0.00020233,0.0085391,-0.0020338,-0.0032425,25:07.4
0.0083808,0.00022501,0.0085392,-0.0022419,-0.0034052,25:07.4
0.0090129,0.00023909,0.0085105,-0.002481,-0.0036282,25:07.4
0.009812,0.00022119,0.0084766,-0.0027448,-0.0038898,25:07.4
0.010667,0.00021785,0.0084351,-0.0030482,-0.0042004,25:07.4
0.011507,0.000225,0.0083806,-0.0032898,-0.0044818,25:07.4
0.012185,0.00021939,0.0083763,-0.0034743,-0.0046732,25:07.4
0.012622,0.0002268,0.008419,-0.0036224,-0.0048204,25:07.4
0.012847,0.00023362,0.0084842,-0.0036713,-0.0048842,25:07.4
0.012848,0.00023874,0.0085591,-0.0036687,-0.0048658,25:07.4
0.012831,0.00025431,0.0085922,-0.0036951,-0.0048705,25:07.4
0.013025,0.00023808,0.0085941,-0.0037633,-0.00494,25:07.4
0.013414,0.00021226,0.0085525,-0.0038693,-0.0050348,25:07.4
0.013924,0.00022882,0.0084541,-0.0040391,-0.0051769,25:07.4
0.014498,0.00024481,0.0083375,-0.004239,-0.0053718,25:07.4
0.015024,0.00025227,0.0082057,-0.0043905,-0.0055318,25:07.4
0.015343,0.00027485,0.008087,-0.0045011,-0.00562,25:07.4
0.01542,0.00027836,0.0079805,-0.0045312,-0.0056339,25:07.4
0.015328,0.00027846,0.0078771,-0.0044806,-0.0055979,25:07.4
0.015136,0.0002985,0.0077847,-0.004443,-0.0055453,25:07.4
0.014979,0.00030078,0.0076442,-0.0044024,-0.0054938,25:07.4
0.014961,0.00029232,0.0074165,-0.0043892,-0.0055131,25:07.4
0.015223,0.00028877,0.007108,-0.0044913,-0.0056533,25:07.4
0.015741,0.00028147,0.0067474,-0.0046571,-0.0058555,25:07.4
0.016243,0.00030041,0.0063305,-0.004857,-0.0060368,25:07.4
0.016794,0.00032574,0.0058819,-0.0050874,-0.0062273,25:07.4
0.017327,0.00032935,0.0054065,-0.005245,-0.0063927,25:07.4
0.017544,0.00035031,0.004885,-0.0053211,-0.0064265,25:07.4
0.017566,0.00038334,0.0044051,-0.0053702,-0.0064018,25:07.4
0.017442,0.00043372,0.0038957,-0.005342,-0.0062976,25:07.4
0.017191,0.00049512,0.0032463,-0.0052757,-0.0060738,25:07.4
0.017057,0.00051256,0.0023886,-0.0052834,-0.0059469,25:07.4
0.017108,0.00051496,0.0013508,-0.0053403,-0.0059588,25:07.4
0.017271,0.00052262,0.00029916,-0.0054382,-0.0060189,25:07.4
0.017526,0.00052447,-0.00096996,-0.0056073,-0.0061377,25:07.4
0.017828,0.00053431,-0.0023973,-0.0057595,-0.0062222,25:07.4
0.017954,0.00054455,-0.0034758,-0.0058448,-0.0062153,25:07.4
0.017823,0.0005621,-0.0041441,-0.0058921,-0.0061559,25:07.4
0.01762,0.00057403,-0.0045172,-0.0058927,-0.0060345,25:07.5
0.017313,0.00056889,-0.0047262,-0.0058667,-0.0058749,25:07.5
0.016954,0.00056886,-0.0050621,-0.0058722,-0.0057461,25:07.5
0.016842,0.00056388,-0.0055332,-0.0059213,-0.0056912,25:07.5
0.016993,0.00055645,-0.005845,-0.0060211,-0.0057205,25:07.5
0.017273,0.00054479,-0.0059899,-0.0061961,-0.0058013,25:07.5
0.017628,0.000513,-0.0062356,-0.0063901,-0.0058956,25:07.5
0.017996,0.00049144,-0.0064926,-0.0065709,-0.0060014,25:07.5
0.018244,0.00047514,-0.0066631,-0.0067389,-0.0060715,25:07.5
0.018255,0.00045198,-0.0070132,-0.0067988,-0.006054,25:07.5
0.018063,0.0004474,-0.0073905,-0.0067506,-0.0059773,25:07.5
0.01774,0.0004321,-0.0074536,-0.0066752,-0.0058465,25:07.5
0.017374,0.00040597,-0.007385,-0.0065829,-0.0056952,25:07.5
0.017114,0.0004052,-0.0073818,-0.006508,-0.0056023,25:07.5
0.017035,0.00040621,-0.0073991,-0.0064965,-0.0055599,25:07.5
0.017104,0.00039367,-0.0073788,-0.0065203,-0.0055372,25:07.5
0.017209,0.00038046,-0.0073444,-0.0065459,-0.0055404,25:07.5
0.017318,0.00038059,-0.0073311,-0.0065839,-0.0055613,25:07.5
0.017316,0.00037805,-0.0072851,-0.0065485,-0.0055292,25:07.5
0.017012,0.00035061,-0.0072195,-0.0064057,-0.0054117,25:07.5
0.016512,0.0003146,-0.0071087,-0.0062455,-0.0052589,25:07.5
0.015873,0.00029589,-0.0069573,-0.0060149,-0.0050429,25:07.5
0.015118,0.00031522,-0.0068374,-0.005723,-0.0047655,25:07.5
0.014488,0.00033443,-0.006641,-0.0054844,-0.0045366,25:07.5
0.014077,0.00034072,-0.0064916,-0.005314,-0.0043735,25:07.5
0.013815,0.00036083,-0.0064488,-0.0052108,-0.0042356,25:07.5
0.013675,0.00035619,-0.0062546,-0.0051521,-0.0041481,25:07.5
0.013569,0.00034518,-0.0061064,-0.0051254,-0.0041015,25:07.5
0.01329,0.00034585,-0.0060628,-0.0050518,-0.004024,25:07.5
0.012842,0.00033654,-0.0058736,-0.004838,-0.0038935,25:07.5
0.012276,0.00035287,-0.0056933,-0.0045554,-0.0037031,25:07.5
0.011549,0.00037876,-0.0055918,-0.0042632,-0.0034643,25:07.5
0.010912,0.00039094,-0.00552,-0.0040139,-0.0032349,25:07.5
0.010431,0.00040852,-0.0054467,-0.0038303,-0.0030351,25:07.5
0.010023,0.00043044,-0.0053823,-0.0036773,-0.0029026,25:07.5
0.0098245,0.00045269,-0.0053771,-0.0036324,-0.0028655,25:07.5
0.0097807,0.00046815,-0.0052304,-0.0036556,-0.0028558,25:07.5
0.009712,0.00048998,-0.005164,-0.0036551,-0.0028454,25:07.5
0.0095122,0.00051046,-0.0053161,-0.003628,-0.0028128,25:07.5
0.0091651,0.00050989,-0.0051915,-0.0034599,-0.0026807,25:07.5
0.0086335,0.00053276,-0.0049244,-0.0032239,-0.0024931,25:07.5
0.0079256,0.0005882,-0.0047967,-0.0030428,-0.0022611,25:07.5
0.0072172,0.00061901,-0.0046286,-0.0027784,-0.0019467,25:07.5
0.0066185,0.00063115,-0.0044744,-0.0025066,-0.0017019,25:07.5
0.0062144,0.00066132,-0.0043724,-0.0024059,-0.0015834,25:07.5
0.0060045,0.00067682,-0.0042721,-0.0023793,-0.0015067,25:07.5
0.0058942,0.00066983,-0.0041976,-0.002349,-0.0014717,25:07.5
0.0058295,0.00066439,-0.0041185,-0.0023594,-0.0014626,25:07.5
0.0056784,0.00064874,-0.0040597,-0.0023125,-0.0013986,25:07.5
0.0053462,0.00065215,-0.0040007,-0.0021384,-0.0012528,25:07.5
0.004891,0.00068036,-0.0039192,-0.0019829,-0.0011081,25:07.6
0.0043533,0.00069548,-0.0038787,-0.0018712,-0.00093958,25:07.6
0.0037757,0.00070928,-0.0038577,-0.0017574,-0.00071352,25:07.6
0.0033574,0.00069807,-0.0038453,-0.0016682,-0.00057253,25:07.6
0.0031712,0.00066461,-0.0038719,-0.0016279,-0.00052821,25:07.6
0.0031004,0.00067849,-0.0039226,-0.0017005,-0.00050273,25:07.6
0.0031778,0.00068819,-0.0039932,-0.0017845,-0.00051741,25:07.6
0.0033558,0.00066224,-0.0040838,-0.0017996,-0.0005599,25:07.6
0.0034176,0.00067331,-0.0041623,-0.001858,-0.00056423,25:07.6
0.0033282,0.00068517,-0.0042285,-0.0019158,-0.00051495,25:07.6
0.003109,0.00067757,-0.0043211,-0.0018988,-0.00043671,25:07.6
0.0027763,0.00069014,-0.0044036,-0.0018528,-0.00033181,25:07.6
0.0025004,0.00069417,-0.0044929,-0.0018173,-0.00023605,25:07.6
0.0023533,0.00069153,-0.0046211,-0.0018123,-0.00019145,25:07.6
0.0023372,0.00068459,-0.0047277,-0.0018445,-0.00022119,25:07.6
0.0025425,0.0006615,-0.0048521,-0.001953,-0.00032077,25:07.6
0.0028867,0.00064675,-0.0049957,-0.002135,-0.00041877,25:07.6
0.0032256,0.00063735,-0.0051338,-0.0023062,-0.00052854,25:07.6
0.0034952,0.00063588,-0.0052407,-0.0024297,-0.000641,25:07.6
0.0035945,0.0006432,-0.0053189,-0.0025123,-0.00065096,25:07.6
0.0035116,0.00063861,-0.0054484,-0.0025421,-0.00059985,25:07.6
0.003326,0.00063547,-0.0055062,-0.0025274,-0.00053473,25:07.6
0.0031029,0.00063792,-0.0056137,-0.0025002,-0.00045074,25:07.6
0.0029458,0.00063429,-0.0058816,-0.0024855,-0.00041284,25:07.6
0.0029653,0.00062412,-0.0060187,-0.0025435,-0.00041505,25:07.6
0.0031175,0.00059464,-0.0060959,-0.0026593,-0.00044741,25:07.6
0.003288,0.000564,-0.0061711,-0.0027433,-0.00053732,25:07.6
0.0034881,0.00054657,-0.0061369,-0.0028035,-0.00062921,25:07.6
0.0036455,0.00052555,-0.0060967,-0.0028019,-0.00066348,25:07.6
0.0035935,0.00052129,-0.0060201,-0.002727,-0.00063648,25:07.6
0.0033949,0.00052667,-0.0059121,-0.00268,-0.00058106,25:07.6
0.0031487,0.00051913,-0.0058367,-0.0026046,-0.00050289,25:07.6
0.00285,0.00050651,-0.0057324,-0.0024784,-0.00039987,25:07.6
0.0026854,0.00048823,-0.0056067,-0.0024185,-0.00034019,25:07.6
0.0027643,0.00048355,-0.0055061,-0.0024139,-0.00035725,25:07.6
0.0029264,0.00047522,-0.0053823,-0.0024398,-0.00044085,25:07.6
0.0032025,0.00044563,-0.0052441,-0.0025149,-0.00056575,25:07.6
0.0035753,0.00042625,-0.0051382,-0.0025757,-0.00066316,25:07.6
0.0037952,0.00041628,-0.004967,-0.0025906,-0.00071893,25:07.6
0.0038417,0.00041877,-0.0047291,-0.0025846,-0.00074786,25:07.6
0.0037229,0.00041563,-0.0044885,-0.0025126,-0.00072872,25:07.6
0.0034382,0.00039228,-0.0042332,-0.0023696,-0.00065622,25:07.6
0.0031941,0.00038338,-0.0039786,-0.0022512,-0.00056447,25:07.6
0.0030712,0.00037657,-0.0037275,-0.0021858,-0.00051061,25:07.6
0.0030659,0.00035957,-0.003529,-0.0021651,-0.00053372,25:07.6
0.0032405,0.00033477,-0.0033354,-0.0022079,-0.00061738,25:07.6
0.0035373,0.00029673,-0.0030927,-0.0022858,-0.00071244,25:07.6
0.0038156,0.00026649,-0.0028742,-0.0023691,-0.00081852,25:07.6
0.0039771,0.00023483,-0.0026621,-0.0024247,-0.00091394,25:07.6
0.0039824,0.00020202,-0.0024833,-0.0024027,-0.00091798,25:07.6
0.0038144,0.00019266,-0.0023396,-0.002325,-0.00086093,25:07.7
0.0035212,0.0001798,-0.0021856,-0.0022206,-0.0008021,25:07.7
0.0032246,0.00015443,-0.0020655,-0.0020987,-0.00072053,25:07.7
0.003019,0.00014215,-0.0019591,-0.0020215,-0.00066589,25:07.7
0.00301,0.00012731,-0.0019035,-0.0020101,-0.00068902,25:07.7
0.0031809,0.00010609,-0.0019479,-0.0020137,-0.00073479,25:07.7
0.0033781,9.36E-05,-0.0020286,-0.0020366,-0.00080133,25:07.7
0.0036002,7.47E-05,-0.0021233,-0.0020962,-0.00089751,25:07.7
0.0037767,6.47E-05,-0.0022164,-0.0021083,-0.00095246,25:07.7
0.0037198,6.54E-05,-0.0022917,-0.0020499,-0.00095447,25:07.7
0.0034873,4.02E-05,-0.0023533,-0.001979,-0.00089195,25:07.7
0.0031883,1.23E-05,-0.0023868,-0.0018563,-0.00076008,25:07.7
0.002847,4.72E-06,-0.0024106,-0.0017116,-0.00065927,25:07.7
0.002622,1.24E-05,-0.0024512,-0.0016179,-0.00060618,25:07.7
0.0026076,2.86E-05,-0.0024902,-0.0015555,-0.00057793,25:07.7
0.0026808,2.04E-05,-0.0025102,-0.001556,-0.00063265,25:07.7
0.0028497,-5.93E-06,-0.0025147,-0.0016068,-0.00073764,25:07.7
0.0030955,-2.09E-05,-0.0024999,-0.0016331,-0.00081724,25:07.7
0.0031908,-2.58E-05,-0.002472,-0.0016329,-0.00086495,25:07.7
0.003117,-2.29E-05,-0.0024362,-0.0015982,-0.00084368,25:07.7
0.0028738,-1.18E-05,-0.0023866,-0.0014939,-0.00073454,25:07.7
0.0024834,-1.50E-08,-0.0023206,-0.0013353,-0.00059632,25:07.7
0.0021668,-1.82E-06,-0.0022415,-0.0011877,-0.0004617,25:07.7
0.0019304,-7.34E-07,-0.0021802,-0.0010835,-0.00035521,25:07.7
0.0018169,1.91E-05,-0.0021241,-0.0010284,-0.0003158,25:07.7
0.0019091,2.45E-05,-0.0020556,-0.0010318,-0.00034655,25:07.7
0.002054,1.98E-05,-0.0020045,-0.0010579,-0.0004213,25:07.7
0.0021722,3.39E-05,-0.0019297,-0.0010756,-0.00049621,25:07.7
0.0022069,4.16E-05,-0.0018267,-0.0010632,-0.00052392,25:07.7
0.0020831,3.78E-05,-0.0017152,-0.00098021,-0.00045137,25:07.7
0.0017686,5.38E-05,-0.0015698,-0.00084216,-0.00030329,25:07.7
0.0013186,8.02E-05,-0.0014419,-0.00067499,-0.00015574,25:07.7
0.00087947,9.02E-05,-0.0013347,-0.00050611,-7.68E-06,25:07.7
0.00051425,9.46E-05,-0.0012156,-0.00039146,0.00010697,25:07.7
0.00033224,0.0001102,-0.0011078,-0.00032614,0.00015454,25:07.7
0.00035244,0.00012407,-0.0010074,-0.00029905,0.00017145,25:07.7
0.00041555,0.00013102,-0.00092049,-0.00031142,0.00014341,25:07.7
0.00048736,0.00013151,-0.00084664,-0.00032202,8.50E-05,25:07.7
0.00049217,0.00012352,-0.00076048,-0.0002857,7.63E-05,25:07.7
0.00028759,0.00012846,-0.00065846,-0.00018162,0.00015272,25:07.7
-6.57E-05,0.00014473,-0.00056888,-5.36E-05,0.00027811,25:07.7
-0.00048568,0.00015736,-0.00049969,9.45E-05,0.00040777,25:07.7
-0.00093681,0.00017226,-0.0004315,0.00028313,0.00054944,25:07.7
-0.0012565,0.00018056,-0.0003982,0.00041457,0.00067958,25:07.7
-0.0013609,0.00018561,-0.0004025,0.0004521,0.00073831,25:07.7
-0.0013388,0.00019298,-0.00040601,0.00045475,0.00071835,25:07.7
-0.0012191,0.00018665,-0.00041394,0.00043537,0.00065171,25:07.7
-0.001063,0.00018299,-0.00042261,0.00041766,0.00060329,25:07.7
-0.0010218,0.00018958,-0.00042234,0.00042622,0.00059548,25:07.7
-0.0011349,0.00018376,-0.0004084,0.00047331,0.00061612,25:07.7
-0.0014172,0.00018398,-0.00039431,0.0005904,0.00070154,25:07.8
-0.0018173,0.00019423,-0.00038436,0.00074237,0.00082505,25:07.8
-0.0021436,0.00020242,-0.00037405,0.00087427,0.00094973,25:07.8
-0.0023511,0.00022839,-0.00039651,0.0009741,0.0010561,25:07.8
-0.0024404,0.0002436,-0.00041144,0.0010031,0.0010628,25:07.8
-0.0023309,0.00024234,-0.00041909,0.00096252,0.00099878,25:07.8
-0.0021024,0.00024059,-0.00047117,0.00089754,0.00092137,25:07.8
-0.0019198,0.00021043,-0.00047955,0.00083272,0.0008304,25:07.8
-0.0018276,0.00018998,-0.00044654,0.00080896,0.00079554,25:07.8
-0.0018598,0.00017182,-0.0004485,0.0008362,0.00081799,25:07.8
-0.0020868,0.00013464,-0.00043526,0.00089703,0.00087057,25:07.8
-0.002405,0.00013024,-0.00039947,0.00099232,0.00097715,25:07.8
-0.0026777,0.0001135,-0.0003851,0.0010907,0.0010807,25:07.8
-0.0028633,7.56E-05,-0.00038682,0.0011532,0.0011257,25:07.8
-0.0028597,4.67E-05,-0.00039183,0.0011592,0.0011136,25:07.8
-0.0026815,-5.15E-06,-0.00041125,0.0010987,0.0010524,25:07.8
-0.0024193,-5.55E-05,-0.00044686,0.0010108,0.00095524,25:07.8
-0.0021358,-0.00010113,-0.00047435,0.00093529,0.00084381,25:07.8
-0.001985,-0.00014511,-0.00048839,0.00089262,0.00076282,25:07.8
-0.0020243,-0.00017805,-0.00048872,0.00090857,0.00073205,25:07.8
-0.0021954,-0.00022395,-0.00047979,0.00096572,0.00076572,25:07.8
-0.002445,-0.00025547,-0.00049585,0.0010534,0.00086642,25:07.8
-0.0026973,-0.00027216,-0.00053468,0.0011517,0.00094153,25:07.8
-0.0028225,-0.0003061,-0.00055544,0.0011924,0.00094414,25:07.8
-0.0027449,-0.00034078,-0.00056339,0.0011743,0.00090607,25:07.8
-0.0025497,-0.0003726,-0.00059275,0.001103,0.00079845,25:07.8
-0.0022541,-0.00040671,-0.00062762,0.00098217,0.0006442,25:07.8
-0.0019094,-0.00044067,-0.0006358,0.00088998,0.00051767,25:07.8
-0.0017017,-0.00047193,-0.000634,0.00084,0.00041518,25:07.8
-0.0016482,-0.00047611,-0.00063132,0.00081823,0.00036698,25:07.8
-0.0017486,-0.00046696,-0.00061398,0.00086307,0.00040705,25:07.8
-0.0019848,-0.00048152,-0.00059148,0.00094128,0.00048051,25:07.8
-0.0021688,-0.00049175,-0.00056571,0.0010006,0.00055629,25:07.8
-0.0022342,-0.00048917,-0.00054619,0.0010425,0.00059902,25:07.8
-0.0021745,-0.00050115,-0.00055289,0.0010301,0.0005487,25:07.8
-0.0019117,-0.00050699,-0.00056108,0.00094672,0.00043697,25:07.8
-0.0015414,-0.0005054,-0.00054985,0.00084837,0.00032794,25:07.8
-0.0012273,-0.0005216,-0.00053058,0.00075364,0.00022049,25:07.8
-0.00099549,-0.00053914,-0.00050493,0.00068015,0.00011681,25:07.8
-0.00093305,-0.00053713,-0.00047033,0.00067179,7.33E-05,25:07.8
-0.0010917,-0.00053756,-0.00042832,0.00072547,0.00011269,25:07.8
-0.0012948,-0.00055242,-0.00038079,0.00081239,0.00019526,25:07.8
-0.0014643,-0.00054802,-0.00034626,0.00088713,0.00027573,25:07.8
-0.0015858,-0.00053117,-0.00033883,0.00092003,0.00029659,25:07.8
-0.0015014,-0.00052227,-0.00033736,0.00090613,0.00024234,25:07.8
-0.0012251,-0.00050969,-0.0003319,0.00084126,0.00015327,25:07.8
-0.00089157,-0.00051162,-0.00032972,0.00075295,3.34E-05,25:07.8
-0.00056116,-0.00051078,-0.00031341,0.00066052,-8.91E-05,25:07.8
-0.00035178,-0.00049137,-0.0002742,0.00059715,-0.00015438,25:07.8
-0.00033451,-0.00048752,-0.00022943,0.0006073,-0.00015725,25:07.8
-0.00046881,-0.00047961,-0.00019607,0.00066286,-0.00010623,25:07.9
-0.00070044,-0.00047232,-0.00018117,0.00074574,-2.75E-05,25:07.9
-0.00094263,-0.00047432,-0.00017383,0.00084254,3.12E-05,25:07.9
-0.0010481,-0.00045696,-0.00017363,0.00088685,5.13E-05,25:07.9
-0.00096009,-0.00045276,-0.00020055,0.00086518,1.78E-05,25:07.9
-0.00074893,-0.00044586,-0.00023218,0.00079339,-8.14E-05,25:07.9
-0.00041596,-0.0004203,-0.00024635,0.00067558,-0.00021238,25:07.9
-6.50E-05,-0.00041787,-0.0002676,0.00057771,-0.0003209,25:07.9
0.00011639,-0.00042348,-0.0002807,0.00055044,-0.00039678,25:07.9
0.00012759,-0.00044757,-0.00026974,0.00058171,-0.00044746,25:07.9
-4.48E-05,-0.00049071,-0.00026404,0.00068343,-0.00044406,25:07.9
-0.00034063,-0.00051996,-0.00026658,0.00082724,-0.00039664,25:07.9
-0.00054714,-0.00055095,-0.00027701,0.00093577,-0.00037584,25:07.9
-0.00062775,-0.0005974,-0.0002994,0.0010095,-0.00039295,25:07.9
-0.00059333,-0.00063224,-0.00032357,0.001057,-0.00045587,25:07.9
-0.00035393,-0.00060808,-0.00034933,0.0010349,-0.00058835,25:07.9
1.16E-05,-0.00054634,-0.00034674,0.00095816,-0.00070451,25:07.9
0.00032472,-0.00046611,-0.00031178,0.00089629,-0.00078024,25:07.9
0.00055328,-0.00036865,-0.00030061,0.00087034,-0.00083242,25:07.9
0.00059218,-0.00026892,-0.00030049,0.0009053,-0.00076489,25:07.9
0.00037312,-0.00012199,-0.00030093,0.0010277,-0.00060689,25:07.9
0.00010834,5.51E-05,-0.00032665,0.0011439,-0.0004034,25:07.9
-0.00012769,0.00027553,-0.00032567,0.0012102,-0.00014496,25:07.9
-0.00030672,0.00053416,-0.00029394,0.0012027,2.42E-05,25:07.9
-0.00023094,0.00077077,-0.00025693,0.0010024,0.0001041,25:07.9
4.36E-05,0.0010626,-0.0001609,0.00071271,0.00019146,25:07.9
0.00034432,0.0012766,-3.20E-05,0.0004476,0.00020413,25:07.9
0.00064759,0.0012961,6.46E-05,0.00015555,0.00015301,25:07.9
0.00085882,0.0013441,0.00019257,-4.94E-05,0.00013991,25:07.9
0.00087107,0.0013932,0.00037907,-0.00011315,0.00015944,25:07.9
0.00068677,0.001255,0.00051498,-0.00010429,0.000193,25:07.9
0.00033656,0.0010585,0.00055791,-5.23E-05,0.00026408,25:07.9
-2.33E-05,0.0009156,0.00058125,-5.49E-06,0.00033516,25:07.9
-0.00023922,0.00066003,0.00060038,8.87E-05,0.00032361,25:07.9
-0.00039241,0.00030068,0.00049925,0.00022826,0.00025341,25:07.9
-0.00048192,2.15E-05,0.00023711,0.00032229,0.00015258,25:07.9
-0.00042354,-0.00015282,2.62E-05,0.00038773,1.14E-05,25:07.9
-0.00031846,-0.00023324,1.67E-05,0.00043692,-0.00011527,25:07.9
0.0035173,-0.00074097,-0.0037631,-0.0014947,-0.00091121,25:08.0
0.0038057,-0.0010095,-0.0038002,-0.0016575,-0.0010755,25:08.0
0.0032775,-0.00074633,-0.0034635,-0.001306,-0.00093186,25:08.1
0.0031149,-0.00077783,-0.0034199,-0.0012074,-0.00088498,25:08.1
0.0027567,-0.00068769,-0.0032721,-0.00099317,-0.00077961,25:08.1
0.002592,-0.00067662,-0.0032274,-0.0008742,-0.0007294,25:08.1
0.0025871,-0.00070153,-0.003227,-0.00085232,-0.00075192,25:08.1
0.0026902,-0.00063116,-0.0031747,-0.000832,-0.00080469,25:08.1
0.0030421,-0.00060998,-0.0031875,-0.00088717,-0.00090459,25:08.1
0.0032384,-0.00056269,-0.0031611,-0.00090184,-0.00096643,25:08.1
0.0033433,-0.00054622,-0.003155,-0.00091757,-0.0010025,25:08.1
0.0032933,-0.00055213,-0.0031547,-0.00088763,-0.00097578,25:08.1
0.0029786,-0.00054945,-0.0031343,-0.00078627,-0.00088747,25:08.1
0.0026622,-0.00056648,-0.0031369,-0.00067547,-0.00078552,25:08.1
0.002373,-0.00056896,-0.0031354,-0.00055438,-0.00067442,25:08.1
0.0021508,-0.00057456,-0.003151,-0.00048369,-0.0006264,25:08.1
0.002138,-0.00058205,-0.0031861,-0.00048582,-0.0006451,25:08.1
0.0023079,-0.00057828,-0.0032318,-0.00053075,-0.00068836,25:08.1
0.002571,-0.00057499,-0.0032863,-0.00061019,-0.00078137,25:08.1
0.002817,-0.00056842,-0.0033238,-0.00068943,-0.00088399,25:08.1
0.0029294,-0.00055991,-0.0033611,-0.00071368,-0.00092066,25:08.1
0.0028648,-0.00056382,-0.0034128,-0.0006881,-0.00090412,25:08.1
0.002651,-0.00055867,-0.0034643,-0.0006088,-0.00082429,25:08.1
0.0023545,-0.00053114,-0.003521,-0.00047937,-0.00068969,25:08.1
0.0020685,-0.0005236,-0.0035839,-0.00039222,-0.0006024,25:08.1
0.0019538,-0.00051701,-0.0036817,-0.00036279,-0.00057028,25:08.1
0.0020498,-0.00049456,-0.0038226,-0.00036939,-0.00057831,25:08.1
0.0022424,-0.00049542,-0.0039507,-0.00044384,-0.00066925,25:08.1
0.0025605,-0.00050032,-0.0040638,-0.00055476,-0.00080547,25:08.1
0.0029192,-0.00050208,-0.0041654,-0.000644,-0.00091905,25:08.1
0.0030974,-0.00049771,-0.0042367,-0.00069383,-0.00098352,25:08.1
0.0031297,-0.00047227,-0.0042951,-0.00070604,-0.001001,25:08.1
0.0030117,-0.00045742,-0.0043415,-0.00065224,-0.0009432,25:08.1
0.0027328,-0.00044605,-0.0043806,-0.00054895,-0.00082635,25:08.1
0.002553,-0.00043645,-0.0044373,-0.00049057,-0.0007704,25:08.1
0.0025495,-0.00043629,-0.0044959,-0.00047733,-0.00077674,25:08.1
0.0026517,-0.00042183,-0.0045256,-0.00052146,-0.00082355,25:08.1
0.0029781,-0.00041949,-0.0045395,-0.00065694,-0.00095945,25:08.1
0.0034671,-0.00042475,-0.0045456,-0.0007917,-0.0011175,25:08.1
0.0038899,-0.00041268,-0.0045293,-0.00091458,-0.0012562,25:08.1
0.0042104,-0.00041261,-0.0044885,-0.0010359,-0.0013775,25:08.1
0.0044128,-0.00042242,-0.0044238,-0.0010955,-0.0014461,25:08.1
0.0044457,-0.00042691,-0.0043508,-0.0011126,-0.0014669,25:08.1
0.0043384,-0.00041998,-0.0042599,-0.0010772,-0.001417,25:08.1
0.0041207,-0.00041577,-0.0041547,-0.00099149,-0.0013291,25:08.1
0.0039322,-0.00043736,-0.004064,-0.00095297,-0.0013043,25:08.1
0.0039854,-0.00044719,-0.0039703,-0.00099358,-0.0013455,25:08.1
0.0042599,-0.00044038,-0.0038748,-0.0010785,-0.0014235,25:08.1
0.0046154,-0.00043784,-0.0037698,-0.0011961,-0.001541,25:08.1
0.0049385,-0.00042787,-0.0036473,-0.0013138,-0.0016571,25:08.1
0.0050942,-0.00042815,-0.0035102,-0.0013658,-0.0017132,25:08.1
0.0050739,-0.00042764,-0.0033484,-0.0013636,-0.0017181,25:08.1
0.0049293,-0.00041513,-0.0032087,-0.0013243,-0.0016718,25:08.2
0.0046659,-0.0004147,-0.00307,-0.0012307,-0.0015641,25:08.2
0.00441,-0.00041371,-0.0029118,-0.0011593,-0.001482,25:08.2
0.0043267,-0.00041132,-0.0027964,-0.0011507,-0.0014658,25:08.2
0.0044179,-0.00041724,-0.0027111,-0.0011757,-0.0014849,25:08.2
0.0046064,-0.000432,-0.002641,-0.0012602,-0.0015711,25:08.2
0.0048945,-0.00044542,-0.0025719,-0.0013796,-0.0017017,25:08.2
0.0051908,-0.00043301,-0.002474,-0.0014597,-0.0017845,25:08.2
0.0052901,-0.00042218,-0.0023655,-0.001488,-0.0018104,25:08.2
0.0052331,-0.0004313,-0.0022643,-0.0014768,-0.0018051,25:08.2
0.0050413,-0.00044003,-0.0021665,-0.0014131,-0.001737,25:08.2
0.0047157,-0.00044549,-0.0020626,-0.0013051,-0.001614,25:08.2
0.0045456,-0.00044578,-0.0019895,-0.0012445,-0.0015481,25:08.2
0.0045534,-0.00044714,-0.0019497,-0.0012498,-0.0015645,25:08.2
0.0047107,-0.00045805,-0.0019314,-0.0012985,-0.0016253,25:08.2
0.0051214,-0.00047476,-0.0019556,-0.0014706,-0.0017983,25:08.2
0.0057091,-0.00047985,-0.0019653,-0.0016533,-0.0020063,25:08.2
0.0063214,-0.00050547,-0.0019952,-0.0018065,-0.002205,25:08.2
0.0067565,-0.00056585,-0.0020373,-0.0020054,-0.0024095,25:08.2
0.0071999,-0.00058622,-0.0020492,-0.0020925,-0.0024876,25:08.2
0.0073672,-0.00059606,-0.0021161,-0.0021774,-0.0025937,25:08.2
0.0072913,-0.00061079,-0.0021449,-0.0021772,-0.002596,25:08.2
0.0074312,-0.00061264,-0.0022247,-0.0020825,-0.0024856,25:08.2
0.0071585,-0.00063975,-0.0023711,-0.0022421,-0.0026498,25:08.2
0.0075776,-0.00059031,-0.0024144,-0.0020759,-0.0024594,25:08.2
0.0075864,-0.00047392,-0.0024086,-0.0014923,-0.0018319,25:08.2
0.005228,-0.00041933,-0.0021599,-0.001291,-0.0016153,25:08.2
0.0055002,-0.00047523,-0.00226,-0.0016934,-0.0020471,25:08.2
0.0083733,-0.00060488,-0.0030307,-0.0024011,-0.0028106,25:08.2
0.0086,-0.00064105,-0.0033207,-0.0026107,-0.0030207,25:08.2
0.0080308,-0.000641,-0.0033167,-0.0023827,-0.0027819,25:08.2
0.0080067,-0.00066873,-0.0035735,-0.0023312,-0.0027371,25:08.2
0.0076252,-0.00063169,-0.0037094,-0.0022744,-0.0026512,25:08.2
0.0077053,-0.00063155,-0.0039308,-0.0022629,-0.0026303,25:08.2
0.0078768,-0.00066148,-0.0041497,-0.0023451,-0.0027079,25:08.2
0.008138,-0.00066767,-0.0042035,-0.0024208,-0.0027871,25:08.2
0.0086597,-0.00069475,-0.0043249,-0.0025757,-0.0029779,25:08.2
0.0089169,-0.00069934,-0.0043859,-0.0026759,-0.0030692,25:08.2
0.0090256,-0.00070145,-0.0044067,-0.0027016,-0.0030869,25:08.2
0.0089854,-0.00071771,-0.0044304,-0.0026822,-0.0030878,25:08.2
0.0086439,-0.00070865,-0.0043654,-0.0025557,-0.0029494,25:08.2
0.0081357,-0.00068861,-0.0043121,-0.0023805,-0.0027571,25:08.2
0.0076649,-0.00067758,-0.0042606,-0.002219,-0.0025993,25:08.2
0.0073457,-0.00066673,-0.0041662,-0.0020997,-0.0024827,25:08.2
0.007156,-0.00064396,-0.0040591,-0.0020302,-0.0024036,25:08.2
0.0071378,-0.00062169,-0.0039371,-0.0020194,-0.0023853,25:08.2
0.0072048,-0.00060933,-0.0038147,-0.0020371,-0.0023865,25:08.2
0.0070721,-0.00060666,-0.0036469,-0.0019979,-0.002335,25:08.2
0.0067592,-0.00058439,-0.0034139,-0.0018798,-0.0022271,25:08.2
0.0062143,-0.00054263,-0.0031409,-0.0016906,-0.0020161,25:08.2
0.0053329,-0.00053858,-0.0028323,-0.0014299,-0.0017301,25:08.3
0.0045121,-0.00052871,-0.0025404,-0.0011346,-0.0014185,25:08.3
0.0038119,-0.00048682,-0.0023047,-0.00087604,-0.0011058,25:08.3
0.0031372,-0.00047287,-0.0021345,-0.0006967,-0.00089718,25:08.3
0.0027441,-0.00046158,-0.0020027,-0.00057964,-0.000775,25:08.3
0.0026167,-0.00044807,-0.0018856,-0.00053413,-0.00071194,25:08.3
0.0026052,-0.00044562,-0.0017797,-0.00054777,-0.00072385,25:08.3
0.0025715,-0.00042845,-0.001669,-0.00053801,-0.00070677,25:08.3
0.0024192,-0.00041584,-0.0015869,-0.00047465,-0.00062331,25:08.3
0.002096,-0.00040227,-0.0015266,-0.00036832,-0.0005012,25:08.3
0.0015779,-0.00040177,-0.0014745,-0.000202,-0.00032547,25:08.3
0.0010071,-0.00041656,-0.0014453,-8.38E-06,-0.00011642,25:08.3
0.00052903,-0.00039782,-0.0014314,0.0001146,3.52E-05,25:08.3
0.00031574,-0.00038427,-0.0014609,0.00015272,9.20E-05,25:08.3
0.0003516,-0.00038895,-0.001529,0.00014086,0.00010733,25:08.3
0.00056195,-0.00039125,-0.0016232,5.25E-05,3.65E-05,25:08.3
0.00096532,-0.00040264,-0.0017347,-9.03E-05,-0.0001163,25:08.3
0.0012742,-0.00040106,-0.0018541,-0.00020183,-0.00020946,25:08.3
0.0013657,-0.00040052,-0.0019823,-0.00025051,-0.00024438,25:08.3
0.0013525,-0.00041027,-0.0020846,-0.00025113,-0.00023881,25:08.3
0.0011443,-0.00041354,-0.0022,-0.00018989,-0.00014799,25:08.3
0.00079632,-0.00040971,-0.0023483,-9.55E-05,-4.08E-05,25:08.3
0.00057695,-0.00039458,-0.0024904,-4.87E-05,3.00E-05,25:08.3
0.0005724,-0.00038444,-0.0026313,-5.17E-05,4.57E-05,25:08.3
0.00069374,-0.00037477,-0.0027741,-0.00011869,-2.83E-05,25:08.3
0.0010193,-0.00036472,-0.0029244,-0.00026779,-0.00015224,25:08.3
0.0015143,-0.00035558,-0.003034,-0.00042372,-0.00030386,25:08.3
0.0018719,-0.00034399,-0.0030972,-0.00053863,-0.00046021,25:08.3
0.0020357,-0.00036518,-0.0031527,-0.00059176,-0.00052783,25:08.3
0.0020062,-0.00037778,-0.0031576,-0.00056481,-0.0004954,25:08.3
0.0017423,-0.00034662,-0.0031307,-0.00048552,-0.00041362,25:08.3
0.0014541,-0.00031977,-0.0031005,-0.00038495,-0.00029002,25:08.3
0.0012496,-0.00029852,-0.0030467,-0.00028842,-0.00018,25:08.3
0.0011203,-0.00028902,-0.002994,-0.00024912,-0.00017413,25:08.3
0.0012009,-0.00029149,-0.0029634,-0.00029762,-0.00024694,25:08.3
0.0014914,-0.00028148,-0.0029264,-0.00037748,-0.00033297,25:08.3
0.0018145,-0.00027125,-0.0028564,-0.00045877,-0.00044688,25:08.3
0.0020395,-0.00025517,-0.0027737,-0.0005326,-0.00053313,25:08.3
0.0020062,-0.00023533,-0.0026595,-0.00051782,-0.00050934,25:08.3
0.0017225,-0.00022677,-0.0025034,-0.00042264,-0.00043188,25:08.3
0.0014023,-0.00021672,-0.0023447,-0.00030178,-0.00032329,25:08.3
0.0010186,-0.00020205,-0.0021898,-0.00015054,-0.00016771,25:08.3
0.00065423,-0.00018331,-0.002046,-4.91E-05,-6.07E-05,25:08.3
0.00057858,-0.00017301,-0.0019169,-4.47E-05,-4.76E-05,25:08.3
0.00070775,-0.00018392,-0.0017877,-8.25E-05,-8.42E-05,25:08.3
0.00099893,-0.00018543,-0.001641,-0.00017717,-0.0001907,25:08.3
0.001447,-0.00017025,-0.0014904,-0.00032106,-0.00034743,25:08.3
0.0017509,-0.00017344,-0.0013051,-0.00041341,-0.00045491,25:08.3
0.0018343,-0.00018365,-0.0010546,-0.00043097,-0.00049589,25:08.3
0.0017891,-0.00016704,-0.00082081,-0.00041641,-0.0004598,25:08.3
0.001534,-0.00014525,-0.00058281,-0.00032933,-0.00034344,25:08.4
0.0011232,-0.00014225,-0.00030701,-0.0001888,-0.00023344,25:08.4
0.00081803,-0.000143,-5.19E-05,-0.00010719,-0.00014981,25:08.4
0.00074453,-0.00014336,0.00018658,-8.12E-05,-0.00010652,25:08.4
0.00082902,-0.00014392,0.00040147,-0.00011242,-0.00016167,25:08.4
0.0010951,-0.00015081,0.00058142,-0.00022386,-0.00027952,25:08.4
0.0015006,-0.00017134,0.00073845,-0.0003403,-0.00041105,25:08.4
0.0017795,-0.00018057,0.000932,-0.00042212,-0.00052571,25:08.4
0.0018593,-0.00018865,0.0011974,-0.00044657,-0.00057068,25:08.4
0.0017351,-0.00020535,0.0014604,-0.00038954,-0.00051706,25:08.4
0.0013748,-0.00019754,0.0017165,-0.00027239,-0.00039244,25:08.4
0.00098912,-0.00019512,0.0019899,-0.00013116,-0.00025357,25:08.4
0.0006999,-0.00021177,0.0022413,-2.05E-05,-0.00013155,25:08.4
0.00052333,-0.00020556,0.0024709,1.63E-05,-8.49E-05,25:08.4
0.00060559,-0.00019408,0.0026752,-4.00E-05,-0.00013384,25:08.4
0.00090075,-0.00019567,0.0028487,-0.00011927,-0.0002181,25:08.4
0.0012256,-0.00019863,0.003038,-0.00021819,-0.00034124,25:08.4
0.0014932,-0.00020976,0.0032407,-0.00032616,-0.0004599,25:08.4
0.0015288,-0.00022358,0.0034535,-0.00030666,-0.00047875,25:08.4
0.0013051,-0.00022553,0.0036927,-0.00026771,-0.00042121,25:08.4
0.0010205,-0.00021734,0.0039378,-0.00015449,-0.00030665,25:08.4
0.00064067,-0.00020295,0.004189,1.98E-05,-0.0001392,25:08.4
0.00023723,-0.00019797,0.0043954,8.37E-05,-1.40E-05,25:08.4
0.00010478,-0.0002094,0.0045409,0.00018472,1.13E-05,25:08.4
0.0001975,-0.00021382,0.0046798,0.00010098,-2.28E-05,25:08.4
0.0004392,-0.00022085,0.0047803,5.88E-05,-0.00011656,25:08.4
0.00082138,-0.00023632,0.0048481,-1.56E-05,-0.00025642,25:08.4
0.0010682,-0.00023678,0.0049402,-0.00027566,-0.00033842,25:08.4
0.0010647,-0.00023078,0.0050396,4.70E-05,-0.00034466,25:08.4
0.00091049,-0.00021392,0.0051422,-0.0003685,-0.00027109,25:08.4
0.00056053,-0.00020649,0.0052694,-0.0010877,-0.00011431,25:08.4
6.04E-05,-0.00023042,0.0054009,-0.00011228,1.25E-05,25:08.4
-0.00032346,-0.00023389,0.0055231,0.00042324,0.00010178,25:08.4
-0.00046284,-0.00022819,0.0056245,0.00011094,0.00016132,25:08.4
-0.00042014,-0.00023331,0.0057044,0.00024788,0.00012063,25:08.4
-0.00016353,-0.00021945,0.0057875,9.23E-05,2.43E-05,25:08.4
0.0002163,-0.00022437,0.0058682,-3.84E-05,-7.98E-05,25:08.4
0.00045481,-0.0002378,0.0059854,-3.84E-05,-0.00016486,25:08.4
0.0004953,-0.00022065,0.0061682,-0.00013251,-0.00017952,25:08.4
0.0003101,-0.00021661,0.0063587,6.71E-07,-0.00011337,25:08.4
-8.89E-05,-0.00021295,0.0065493,0.00012568,1.83E-05,25:08.4
-0.00050616,-0.00018243,0.0067387,0.0002563,0.00017122,25:08.4
-0.00083254,-0.00016711,0.0068876,0.00039603,0.00029523,25:08.4
-0.00096613,-0.00016595,0.0070081,0.00040522,0.00032922,25:08.4
-0.0008239,-0.00016259,0.0071061,0.00035425,0.0002572,25:08.4
-0.00050894,-0.00017071,0.0071784,0.0002515,0.00015426,25:08.4
-0.00014044,-0.00017908,0.0072535,0.00012959,3.58E-05,25:08.4
0.00017409,-0.00018268,0.0073401,2.49E-05,-8.77E-05,25:08.4
0.00024366,-0.00017799,0.0074578,4.66E-06,-0.00011548,25:08.4
3.98E-05,-0.00016432,0.0076073,6.68E-05,-4.67E-05,25:08.4
-0.00025792,-0.00016894,0.0077601,0.00016527,4.69E-05,25:08.5
-0.00062747,-0.00015649,0.0079215,0.00030507,0.00017972,25:08.5
-0.00096528,-0.00012071,0.00806,0.00039937,0.00029519,25:08.5
-0.0010171,-0.00011757,0.0081526,0.00040807,0.00029698,25:08.5
-0.00083871,-0.00010575,0.0082204,0.00035507,0.00023173,25:08.5
-0.00049687,-7.34E-05,0.0082676,0.00023108,0.00011111,25:08.5
-2.86E-05,-6.18E-05,0.0083036,7.55E-05,-6.20E-05,25:08.5
0.00029363,-5.83E-05,0.0083507,-3.74E-05,-0.0001783,25:08.5
0.00036712,-5.21E-05,0.0084241,-6.80E-05,-0.00021317,25:08.5
0.00025857,-2.60E-05,0.0085042,-1.90E-05,-0.00016747,25:08.5
-3.28E-05,3.32E-06,0.008598,8.70E-05,-5.16E-05,25:08.5
-0.00042973,1.61E-05,0.0087089,0.00019481,4.12E-05,25:08.5
-0.00070561,4.27E-05,0.0087889,0.00026008,0.00010254,25:08.5
-0.00070994,7.14E-05,0.0088391,0.00026628,0.00012538,25:08.5
-0.00052027,8.21E-05,0.0088636,0.000183,3.56E-05,25:08.5
-0.00014616,8.47E-05,0.0088579,4.08E-05,-0.00013189,25:08.5
0.00034668,8.68E-05,0.0088553,-9.58E-05,-0.00028617,25:08.5
0.00069961,8.97E-05,0.0088658,-0.0002114,-0.00040741,25:08.5
0.00083538,9.41E-05,0.0088963,-0.00026524,-0.00046709,25:08.5
0.00071994,1.00E-04,0.0089633,-0.00021702,-0.00042052,25:08.5
0.0003934,0.0001108,0.0090486,-0.00011655,-0.00031302,25:08.5
7.56E-05,0.00013167,0.0091172,-1.28E-05,-0.00019317,25:08.5
-0.00014729,0.00014297,0.0091643,6.76E-05,-0.0001039,25:08.5
-0.0001866,0.00014664,0.0091832,6.30E-05,-0.00012043,25:08.5
7.29E-05,0.00015853,0.0091645,-3.01E-05,-0.00021716,25:08.5
0.00053745,0.00015798,0.0091272,-0.0001787,-0.00035997,25:08.5
0.0010186,0.00014415,0.0090846,-0.00034827,-0.00053588,25:08.5
0.0013882,0.00014013,0.0090603,-0.00046115,-0.00065484,25:08.5
0.001518,0.00014649,0.0090744,-0.00049206,-0.00067934,25:08.5
0.0013717,0.00013457,0.0091143,-0.00045217,-0.00064099,25:08.5
0.0011217,0.00012805,0.0091735,-0.00035478,-0.000554,25:08.5
0.00082448,0.00015988,0.0092367,-0.00024917,-0.00043554,25:08.5
0.00055377,0.00016516,0.0092793,-0.00018797,-0.00036269,25:08.5
0.00058217,0.00015131,0.0092892,-0.00020707,-0.00038748,25:08.5
0.00087999,0.00016409,0.0092642,-0.00029688,-0.00047256,25:08.5
0.0013046,0.00015313,0.0092228,-0.000442,-0.0006232,25:08.5
0.0018256,0.00012726,0.0091877,-0.00061135,-0.00080255,25:08.5
0.0021953,0.00011991,0.0091733,-0.00073485,-0.00092152,25:08.5
0.0022779,0.00011384,0.0091944,-0.00078318,-0.00097491,25:08.5
0.0021853,0.00011301,0.0092476,-0.00073806,-0.00093651,25:08.5
0.0018969,0.00011393,0.0093248,-0.00062181,-0.00082489,25:08.5
0.0015099,0.00010793,0.0094183,-0.0005166,-0.00072604,25:08.5
0.0012887,0.00010873,0.0094923,-0.00045012,-0.00065481,25:08.5
0.0012799,0.00010809,0.0095312,-0.00044134,-0.00064823,25:08.5
0.0015332,8.63E-05,0.0095467,-0.00052976,-0.00075395,25:08.5
0.0020164,6.74E-05,0.0095437,-0.00068393,-0.00092195,25:08.5
0.0024391,6.66E-05,0.0095511,-0.00082638,-0.0010754,25:08.5
0.0027405,6.22E-05,0.0095849,-0.00092067,-0.0011867,25:08.5
0.0028893,6.35E-05,0.0096409,-0.00095492,-0.0012286,25:08.5
0.002719,7.05E-05,0.009734,-0.00089775,-0.0011689,25:08.5
0.0023544,6.26E-05,0.0098514,-0.00077788,-0.001061,25:08.6
0.0020098,5.99E-05,0.0099657,-0.00066389,-0.00095635,25:08.6
0.0017792,7.09E-05,0.010067,-0.00057335,-0.00087162,25:08.6
0.0017612,7.71E-05,0.010138,-0.00057089,-0.00087197,25:08.6
0.0020209,7.70E-05,0.010168,-0.00068049,-0.00097106,25:08.6
0.0024657,8.28E-05,0.010189,-0.00079748,-0.0011294,25:08.6
0.0029173,9.41E-05,0.01023,-0.00092021,-0.0012908,25:08.6
0.0032718,8.86E-05,0.01029,-0.0010502,-0.0013891,25:08.6
0.0033582,8.31E-05,0.010385,-0.0010729,-0.0014213,25:08.6
0.0031388,9.58E-05,0.010526,-0.0010048,-0.001369,25:08.6
0.0028516,0.00010279,0.010684,-0.00089981,-0.0012348,25:08.6
0.0025356,0.00011988,0.010842,-0.00075074,-0.0010907,25:08.6
0.0022529,0.00014322,0.010974,-0.00065737,-0.0010016,25:08.6
0.0022675,0.00014848,0.011066,-0.00067316,-0.0010143,25:08.6
0.0025394,0.00015055,0.011136,-0.00073935,-0.0010986,25:08.6
0.0029294,0.00012897,0.011178,-0.00086587,-0.001249,25:08.6
0.0034015,0.00011417,0.011216,-0.0010168,-0.0014301,25:08.6
0.0037258,0.00013913,0.011289,-0.0011033,-0.0015235,25:08.6
0.0037495,0.00014173,0.011385,-0.0011271,-0.0015521,25:08.6
0.0035856,0.00013905,0.01151,-0.0010615,-0.0014809,25:08.6
0.0032566,0.00015007,0.011659,-0.00092159,-0.00132,25:08.6
0.0028422,0.0001416,0.011775,-0.00081188,-0.0012281,25:08.6
0.0026078,0.00014643,0.011857,-0.0007381,-0.001155,25:08.6
0.0026142,0.00015805,0.01192,-0.00071682,-0.0011287,25:08.6
0.0028705,0.00015748,0.011931,-0.00080147,-0.0012248,25:08.6
0.003338,0.00016215,0.011907,-0.00094392,-0.0013823,25:08.6
0.0037313,0.00015112,0.011888,-0.0010647,-0.0015474,25:08.6
0.0039733,0.00014347,0.011888,-0.0011345,-0.0016094,25:08.6
0.0040637,0.00016825,0.011904,-0.0011539,-0.0016725,25:08.6
0.0038525,0.00018778,0.011958,-0.0010798,-0.0016746,25:08.6
0.0034473,0.00019689,0.012035,-0.00094046,-0.0014325,25:08.6
0.0030799,0.00021336,0.012078,-0.00083486,-0.001251,25:08.6
0.002839,0.00022088,0.012101,-0.00075346,-0.0011893,25:08.6
0.0027953,0.00022612,0.012083,-0.0007455,-0.001148,25:08.6
0.0030307,0.00023436,0.012005,-0.00085806,-0.001247,25:08.6
0.0034392,0.00023045,0.011936,-0.00097995,-0.0013939,25:08.6
0.00381,0.00022783,0.011874,-0.0010936,-0.001524,25:08.6
0.004077,0.00022139,0.011811,-0.0012016,-0.0016077,25:08.6
0.0040859,0.00020938,0.011794,-0.0012133,-0.001586,25:08.6
0.0037857,0.00022328,0.011817,-0.0011361,-0.0014915,25:08.6
0.0034215,0.00023157,0.011854,-0.0010152,-0.0013405,25:08.6
0.0030296,0.00021954,0.011882,-0.00088203,-0.0011942,25:08.6
0.0026841,0.00022328,0.011899,-0.00081389,-0.001108,25:08.6
0.0026288,0.00021319,0.01188,-0.00082586,-0.0011047,25:08.6
0.0028269,0.00019125,0.011804,-0.00089454,-0.0011715,25:08.6
0.0031538,0.00017374,0.01171,-0.0010314,-0.0012849,25:08.6
0.0035084,0.00014129,0.011632,-0.0011673,-0.001425,25:08.6
0.0037067,0.00013318,0.011579,-0.0012239,-0.0014879,25:08.6
0.0036393,0.0001294,0.011567,-0.0012165,-0.001458,25:08.6
0.0033533,0.00010657,0.011598,-0.0011215,-0.001347,25:08.6
0.0028976,0.00010599,0.011647,-0.00095382,-0.0011658,25:08.7
0.002384,9.78E-05,0.011677,-0.00082561,-0.0010443,25:08.7
0.0020681,8.66E-05,0.011682,-0.00075339,-0.00097487,25:08.7
0.0020016,8.55E-05,0.011651,-0.00072724,-0.00093155,25:08.7
0.002175,6.94E-05,0.011572,-0.00080102,-0.0009997,25:08.7
0.0025662,6.58E-05,0.011475,-0.00094203,-0.001128,25:08.7
0.00288,6.56E-05,0.011394,-0.0010509,-0.0012348,25:08.7
0.0030225,5.85E-05,0.011331,-0.001108,-0.0013074,25:08.7
0.0030213,6.14E-05,0.011296,-0.0011167,-0.0012924,25:08.7
0.0027151,5.58E-05,0.011303,-0.0010312,-0.0011761,25:08.7
0.0022166,4.41E-05,0.011326,-0.00088382,-0.0010432,25:08.7
0.0018006,3.91E-05,0.011339,-0.00075836,-0.00091193,25:08.7
0.0015279,4.21E-05,0.011334,-0.00067361,-0.00079513,25:08.7
0.0014444,4.63E-05,0.011282,-0.00065995,-0.00078586,25:08.7
0.0016534,4.51E-05,0.011187,-0.00073694,-0.00086208,25:08.7
0.0020366,4.56E-05,0.011095,-0.00086275,-0.00098615,25:08.7
0.0023531,4.31E-05,0.011005,-0.0009831,-0.0011253,25:08.7
0.0025703,4.70E-05,0.010922,-0.001048,-0.0011832,25:08.7
0.0025771,5.76E-05,0.010881,-0.0010379,-0.001163,25:08.7
0.0022683,5.88E-05,0.010872,-0.00095881,-0.0010428,25:08.7
0.001895,6.06E-05,0.010871,-0.00082801,-0.00085922,25:08.7
0.0015469,5.74E-05,0.010872,-0.00069479,-0.00075224,25:08.7
0.0012483,5.46E-05,0.010842,-0.00063209,-0.00070659,25:08.7
0.0012506,6.55E-05,0.010762,-0.00065506,-0.00070674,25:08.7
0.0015319,6.99E-05,0.010673,-0.00072611,-0.00078571,25:08.7
0.0019464,7.22E-05,0.010566,-0.00085931,-0.00093315,25:08.7
0.0023975,7.33E-05,0.010443,-0.0010119,-0.0010926,25:08.7
0.0026559,6.98E-05,0.010351,-0.0010843,-0.0011748,25:08.7
0.0026626,7.22E-05,0.01029,-0.0010902,-0.0011942,25:08.7
0.0025181,5.87E-05,0.01025,-0.0010329,-0.0011455,25:08.7
0.0022064,4.34E-05,0.01023,-0.00091216,-0.0010169,25:08.7
0.0018893,5.39E-05,0.010204,-0.00083009,-0.00093617,25:08.7
0.0018537,6.39E-05,0.010148,-0.0008169,-0.00093401,25:08.7
0.0020486,6.16E-05,0.010046,-0.00086553,-0.00098098,25:08.7
0.0025145,5.83E-05,0.0098998,-0.0010253,-0.0011509,25:08.7
0.0033001,5.79E-05,0.0097224,-0.0012637,-0.0014129,25:08.7
0.0039806,5.62E-05,0.0095356,-0.0014804,-0.0016518,25:08.7
0.0043826,5.20E-05,0.0093921,-0.0016195,-0.0018172,25:08.7
0.0045418,5.43E-05,0.0092966,-0.0016517,-0.0018497,25:08.7
0.0042959,4.05E-05,0.0092382,-0.0015478,-0.0017622,25:08.7
0.0038154,4.68E-06,0.0092563,-0.0013604,-0.0016649,25:08.7
0.0034502,-2.86E-05,0.0092841,-0.0011965,-0.0015972,25:08.7
0.0032878,-7.36E-05,0.0092645,-0.0010938,-0.0015775,25:08.7
0.0033213,-0.00011838,0.0092387,-0.0010753,-0.0016453,25:08.7
0.0036153,-0.00015408,0.0091696,-0.0011496,-0.0017842,25:08.7
0.0040714,-0.00018913,0.0090775,-0.0012513,-0.0019668,25:08.7
0.0044248,-0.00018797,0.0089943,-0.0013225,-0.0021296,25:08.7
0.0046385,-0.00015251,0.0088962,-0.0013583,-0.0021806,25:08.7
0.0046648,-7.32E-05,0.0088284,-0.0013514,-0.0021402,25:08.7
0.0043929,3.51E-05,0.0087302,-0.0012686,-0.0020221,25:08.7
0.0040277,0.00014054,0.0086097,-0.0011053,-0.0018005,25:08.8
0.0036839,0.00027826,0.0084926,-0.00092767,-0.0015712,25:08.8
0.0033737,0.00042606,0.0082004,-0.00085188,-0.0013718,25:08.8
0.0033221,0.0006133,0.0078862,-0.00087434,-0.0011951,25:08.8
0.0035683,0.00081511,0.0076421,-0.00096945,-0.0011539,25:08.8
0.0039892,0.00098099,0.0072717,-0.0012319,-0.0012166,25:08.8
0.0044288,0.0012114,0.0069729,-0.0015465,-0.0012311,25:08.8
0.0046424,0.0013716,0.0068094,-0.0017883,-0.0011943,25:08.8
0.0046542,0.0014061,0.006686,-0.0020072,-0.0011333,25:08.8
0.0045308,0.0014788,0.0066344,-0.0020985,-0.0010082,25:08.8
0.0041783,0.0014827,0.0065304,-0.002052,-0.00083531,25:08.8
0.0037792,0.0013547,0.0064017,-0.0020058,-0.00072835,25:08.8
0.0035374,0.0011957,0.0061458,-0.0020114,-0.00071481,25:08.8
0.0034516,0.0010346,0.0057005,-0.0020511,-0.00072455,25:08.8
0.0035789,0.00076291,0.0054224,-0.0020735,-0.00084041,25:08.8
0.0038009,0.00035996,0.0051983,-0.0020805,-0.0010508,25:08.8
0.0038393,5.80E-05,0.0046133,-0.0020314,-0.0011483,25:08.8
0.0036686,-0.00013585,0.0039688,-0.0019241,-0.0011798,25:08.8
0.003395,-0.00029116,0.0035732,-0.0017846,-0.0011997,25:08.8
0.0029536,-0.00034027,0.0030794,-0.0015581,-0.0010993,25:08.8
0.0023525,-0.00034423,0.0025835,-0.001323,-0.00095631,25:08.8
0.0018874,-0.0003041,0.0023117,-0.0011193,-0.00084854,25:08.8
0.0016352,-0.00025867,0.0020621,-0.00093278,-0.00078265,25:08.8
0.0015069,-0.00026092,0.0017465,-0.00085242,-0.00078129,25:08.8
0.0016709,-0.00024015,0.0010332,-0.00087293,-0.00082303,25:08.8
0.0020185,-0.00023388,0.00028987,-0.0009337,-0.00091116,25:08.8
0.0022476,-0.00021316,0.00027607,-0.00097499,-0.00096725,25:08.8
0.0023341,-0.00014636,0.00039478,-0.00094425,-0.00094231,25:08.8
0.0021884,-0.00013081,0.00034063,-0.00084111,-0.00089545,25:08.8
0.0017766,-0.00013901,0.00043549,-0.00067474,-0.00077161,25:08.8
0.0012433,-0.00013527,0.00027225,-0.00047571,-0.00057299,25:08.8
0.00074438,-0.00014942,-5.39E-05,-0.00028677,-0.0004092,25:08.8
0.00046092,-0.00017262,-0.00017414,-0.00017511,-0.00032079,25:08.8
0.00041271,-0.00018714,-0.0004515,-0.00015962,-0.00030456,25:08.8
0.00055049,-0.00019229,-0.00076045,-0.00018269,-0.00033489,25:08.8
0.00081958,-0.0002125,-0.00077996,-0.00024917,-0.00041993,25:08.8
0.0010423,-0.00022398,-0.00082043,-0.00032031,-0.00050343,25:08.8
0.0010265,-0.00022106,-0.00098891,-0.00029712,-0.0004908,25:08.8
0.00076365,-0.00024873,-0.0012188,-0.00020384,-0.00040774,25:08.8
0.00036274,-0.00027079,-0.0015204,-3.80E-05,-0.00023248,25:08.8
-0.00022504,-0.00026874,-0.0016614,0.00021053,2.23E-05,25:08.8
-0.0008435,-0.0002767,-0.0016324,0.00039459,0.0002169,25:08.8
-0.001191,-0.00029041,-0.0017592,0.00048607,0.00032131,25:08.8
-0.0013313,-0.00030209,-0.0020165,0.00056411,0.00037881,25:08.8
-0.0012799,-0.00030666,-0.0021733,0.00055864,0.00036322,25:08.8
-0.0010282,-0.00030706,-0.0022309,0.00048095,0.00029313,25:08.8
-0.00090511,-0.0003077,-0.0023037,0.00046707,0.00027803,25:08.8
-0.0010661,-0.00030761,-0.0023942,0.00052169,0.00032594,25:08.8
-0.0014179,-0.00031462,-0.0023898,0.00066562,0.00045523,25:08.8
-0.0020771,-0.00031785,-0.0023593,0.00092425,0.00072496,25:08.8
-0.002987,-0.00031639,-0.0023577,0.0011838,0.0010129,25:08.9
-0.003777,-0.00032534,-0.0023274,0.001432,0.0012618,25:08.9
-0.0043574,-0.00032987,-0.0023452,0.0016635,0.0014927,25:08.9
-0.0047342,-0.0003259,-0.0023771,0.0017851,0.0016263,25:08.9
-0.0048045,-0.0003351,-0.002397,0.0018157,0.0016518,25:08.9
-0.0047222,-0.00033742,-0.0024642,0.0018082,0.0016401,25:08.9
-0.0047241,-0.00031258,-0.0025189,0.0018115,0.0016597,25:08.9
-0.0048712,-0.00029368,-0.0025484,0.0018644,0.0017333,25:08.9
-0.0052458,-0.00028672,-0.00257,0.0019864,0.0018753,25:08.9
-0.0058753,-0.00027509,-0.0025826,0.0021905,0.0021013,25:08.9
-0.0066029,-0.00028399,-0.0025932,0.0024257,0.002365,25:08.9
-0.0072341,-0.00031413,-0.0026329,0.0026347,0.0025842,25:08.9
-0.0075966,-0.00031489,-0.0027481,0.0027521,0.0027087,25:08.9
-0.0076705,-0.00029089,-0.002879,0.0027644,0.0027562,25:08.9
-0.0075127,-0.0002704,-0.0030041,0.0027171,0.002713,25:08.9
-0.0071774,-0.00023112,-0.0031719,0.0026033,0.0026004,25:08.9
-0.006884,-0.00019285,-0.0033584,0.0024941,0.0025293,25:08.9
-0.0068441,-0.00017811,-0.0035322,0.0024805,0.0025308,25:08.9
-0.0070398,-0.00016254,-0.0036763,0.0025235,0.0025873,25:08.9
-0.0073508,-0.00014355,-0.0037923,0.002619,0.0027047,25:08.9
-0.0077981,-0.00011926,-0.0039108,0.0027687,0.0028664,25:08.9
-0.008215,-0.00010486,-0.0040719,0.0028524,0.0029763,25:08.9
-0.0082593,-9.43E-05,-0.0042881,0.0028324,0.0029826,25:08.9
-0.0080456,-5.98E-05,-0.0045402,0.0027626,0.0029347,25:08.9
-0.0076044,-3.83E-05,-0.0048288,0.0025965,0.002784,25:08.9
-0.0068906,-2.78E-05,-0.0051465,0.002356,0.0025391,25:08.9
-0.0063591,8.14E-06,-0.0054571,0.002161,0.0023422,25:08.9
-0.006085,4.45E-05,-0.0057236,0.0020346,0.0022271,25:08.9
-0.005869,7.00E-05,-0.0059903,0.001988,0.0021974,25:08.9
-0.0059249,0.00012009,-0.0062488,0.002046,0.0022715,25:08.9
-0.0061765,0.00019664,-0.0064394,0.0021317,0.0023743,25:08.9
-0.0062455,0.00024797,-0.0066929,0.002152,0.0024255,25:08.9
-0.0061235,0.00026286,-0.0070535,0.0020992,0.0024006,25:08.9
-0.0058131,0.00024491,-0.0074634,0.0019676,0.0022634,25:08.9
-0.0052386,0.0001742,-0.0080009,0.0017469,0.002019,25:08.9
-0.0046475,0.00010653,-0.008674,0.0014848,0.0017533,25:08.9
-0.0041861,6.87E-05,-0.009274,0.001267,0.0015394,25:08.9
-0.0038865,9.55E-06,-0.0096268,0.0011511,0.0014324,25:08.9
-0.003927,-4.01E-05,-0.009907,0.0011418,0.0014368,25:08.9
-0.0042777,-4.31E-05,-0.010198,0.0012365,0.0015151,25:08.9
-0.0047449,-3.14E-05,-0.010439,0.0013797,0.0016732,25:08.9
-0.0051201,-1.45E-05,-0.01078,0.0014935,0.0018289,25:08.9
-0.0052305,1.15E-05,-0.01117,0.0015167,0.0018607,25:08.9
-0.0050314,4.54E-05,-0.011579,0.0014227,0.0018055,25:08.9
-0.0045632,7.29E-05,-0.012173,0.0012887,0.0016709,25:08.9
-0.0039693,7.28E-05,-0.012751,0.0011209,0.0014521,25:08.9
-0.0034398,7.76E-05,-0.013099,0.00094293,0.0012974,25:08.9
-0.0031742,9.09E-05,-0.013295,0.0008845,0.0012468,25:08.9
-0.0031979,8.68E-05,-0.013338,0.00090296,0.0012349,25:08.9
-0.0033684,9.75E-05,-0.013228,0.00095977,0.0013046,25:08.9
-0.003699,0.00010579,-0.013127,0.0011009,0.0014459,25:09.0
-0.0040155,8.95E-05,-0.013071,0.0011992,0.0015234,25:09.0
-0.0040107,7.51E-05,-0.013021,0.0011741,0.0015058,25:09.0
-0.0037863,5.91E-05,-0.013006,0.0011044,0.0014423,25:09.0
-0.0033612,5.64E-05,-0.012977,0.00096202,0.0012773,25:09.0
-0.0027102,6.10E-05,-0.012963,0.00074823,0.0010553,25:09.0
-0.0022369,7.42E-05,-0.012949,0.00059737,0.00092176,25:09.0
-0.0020612,0.00011183,-0.012828,0.00053119,0.00086436,25:09.0
-0.0020062,0.00013358,-0.012678,0.00054474,0.00088381,25:09.0
-0.0022288,0.0001516,-0.012552,0.00065475,0.0010073,25:09.0
-0.0026728,0.00016889,-0.012424,0.00077817,0.001136,25:09.0
-0.0029502,0.00015396,-0.012295,0.00085916,0.0012058,25:09.0
-0.0030138,0.0001341,-0.012165,0.00087962,0.0012174,25:09.0
-0.002836,0.00011672,-0.012072,0.00080523,0.0011388,25:09.0
-0.0023484,0.0001065,-0.012001,0.00065283,0.00097686,25:09.0
-0.0018496,0.00011125,-0.011909,0.00048911,0.0007973,25:09.0
-0.0014824,0.00011389,-0.0118,0.00037132,0.00065294,25:09.0
-0.0012556,0.00012688,-0.011668,0.00032533,0.00060684,25:09.0
-0.0013361,0.00014107,-0.01151,0.00037054,0.00066478,25:09.0
-0.0016945,0.00012653,-0.011321,0.00048018,0.00075658,25:09.0
-0.0021328,0.00010737,-0.011114,0.00060884,0.0008852,25:09.0
-0.002453,0.00010154,-0.010929,0.00070933,0.0010018,25:09.0
-0.0025574,8.61E-05,-0.010742,0.00070234,0.00099591,25:09.0
-0.002402,6.60E-05,-0.010566,0.0006199,0.00091729,25:09.0
-0.0019839,6.48E-05,-0.010445,0.00050413,0.00079217,25:09.0
-0.0014769,7.98E-05,-0.010292,0.00033644,0.00061157,25:09.0
-0.0010694,8.87E-05,-0.010073,0.00022908,0.00050581,25:09.0
-0.00094306,8.93E-05,-0.0098135,0.00023237,0.00050223,25:09.0
-0.0011053,0.00010008,-0.0095002,0.00027987,0.00054107,25:09.0
-0.0014027,0.00010102,-0.0091282,0.0003986,0.00065581,25:09.0
-0.001858,8.05E-05,-0.0086835,0.00057432,0.00082472,25:09.0
-0.00227,6.36E-05,-0.0082411,0.00068964,0.0009337,25:09.0
-0.0023433,4.62E-05,-0.0078631,0.00070939,0.00094286,25:09.0
-0.0021796,4.08E-05,-0.0075496,0.00067503,0.00090442,25:09.0
-0.0018227,5.10E-05,-0.0073242,0.00056052,0.00079192,25:09.0
-0.001306,4.07E-05,-0.0071509,0.00038484,0.00060475,25:09.0
-0.00095454,2.63E-05,-0.0069371,0.00027279,0.00047531,25:09.0
-0.00089974,1.75E-05,-0.0066725,0.0002483,0.00043862,25:09.0
-0.0010255,-1.02E-06,-0.0064123,0.00029747,0.00048245,25:09.0
-0.0013873,-1.04E-05,-0.0061531,0.00043741,0.00061697,25:09.0
-0.0019163,-2.47E-05,-0.0059263,0.00057566,0.0007496,25:09.0
-0.0022692,-4.62E-05,-0.0057204,0.00065839,0.00083692,25:09.0
-0.0023372,-3.51E-05,-0.0054787,0.0006986,0.00088454,25:09.0
-0.0021385,-1.79E-05,-0.0052795,0.00063748,0.00082086,25:09.0
-0.0017086,-2.37E-05,-0.0051693,0.00050782,0.00066507,25:09.0
-0.0012561,-1.08E-05,-0.0051041,0.00037059,0.00049703,25:09.0
-0.00094536,2.48E-05,-0.0050579,0.00025478,0.00037584,25:09.0
-0.00080142,4.63E-05,-0.0050214,0.00023916,0.00036129,25:09.0
0.0027125,-0.00019684,-0.0047017,-0.0012372,-0.00091877,25:09.0
0.0025574,-0.00025867,-0.0047412,-0.0012239,-0.00083488,25:09.0
0.0020422,-0.00026701,-0.0044389,-0.0010776,-0.00077224,25:09.0
0.0018437,-0.00035883,-0.0044342,-0.0010443,-0.00071872,25:09.0
0.0017964,-0.00037067,-0.0043274,-0.0010529,-0.00077182,25:09.0
0.0020565,-0.00040826,-0.0043209,-0.0011756,-0.00090429,25:09.0
0.0025713,-0.00045356,-0.0043689,-0.0013606,-0.001089,25:09.0
0.0031461,-0.00043597,-0.004373,-0.0015558,-0.0013134,25:09.0
0.0036727,-0.00042687,-0.0044255,-0.0017014,-0.0014701,25:09.0
0.0038624,-0.000411,-0.0044097,-0.0017297,-0.0015204,25:09.0
0.0037513,-0.00040863,-0.0043977,-0.0017041,-0.0015106,25:09.0
0.0035175,-0.00041455,-0.0043902,-0.0016059,-0.0014305,25:09.0
0.0031566,-0.00041239,-0.0043536,-0.0014646,-0.001292,25:09.0
0.002846,-0.00043325,-0.0043714,-0.0013893,-0.0012161,25:09.0
0.0028517,-0.00044329,-0.0044384,-0.0014045,-0.0012509,25:09.0
0.003114,-0.00044758,-0.004522,-0.0014814,-0.0013368,25:09.0
0.003537,-0.00046048,-0.00463,-0.0016204,-0.0014913,25:09.0
0.004105,-0.00044658,-0.0047468,-0.0018022,-0.0016833,25:09.0
0.0045095,-0.00043557,-0.0048392,-0.00192,-0.0018046,25:09.0
0.0045784,-0.00043909,-0.0049259,-0.0019488,-0.0018423,25:09.0
0.0044691,-0.00042863,-0.0049715,-0.0018985,-0.0017853,25:09.0
0.0041365,-0.00042222,-0.0049609,-0.0017572,-0.0016478,25:09.1
0.0036732,-0.00041045,-0.0049589,-0.0016112,-0.0015027,25:09.1
0.003398,-0.00038366,-0.0049919,-0.0015114,-0.0013954,25:09.1
0.0033513,-0.00036889,-0.0050858,-0.0014808,-0.0013806,25:09.1
0.003596,-0.00036168,-0.0051891,-0.0015598,-0.0014607,25:09.1
0.0041048,-0.00034469,-0.0053072,-0.0017065,-0.0016073,25:09.1
0.0045851,-0.00033715,-0.0054407,-0.001864,-0.0017809,25:09.1
0.0049059,-0.00035483,-0.0055183,-0.0019924,-0.0019109,25:09.1
0.0050383,-0.00036864,-0.005603,-0.0020317,-0.0019596,25:09.1
0.0048937,-0.00038651,-0.0055906,-0.0019542,-0.0018878,25:09.1
0.0044765,-0.00039202,-0.0055966,-0.0018449,-0.0017888,25:09.1
0.0040886,-0.00037707,-0.0056344,-0.0017243,-0.0016866,25:09.1
0.0038333,-0.00037978,-0.0055172,-0.0015972,-0.0015394,25:09.1
0.003776,-0.00033165,-0.0056897,-0.0016242,-0.0015665,25:09.1
0.0041707,-0.00033873,-0.0055647,-0.0016902,-0.0016241,25:09.1
0.0045197,-0.00045115,-0.0048915,-0.0017174,-0.0015972,25:09.1
0.00452,-0.00045255,-0.004872,-0.0018845,-0.0017661,25:09.1
0.0045853,-0.00043962,-0.0050407,-0.0020067,-0.0018929,25:09.1
0.0049907,-0.00043097,-0.0051204,-0.0020439,-0.0019447,25:09.1
0.0055383,-0.00031264,-0.0054988,-0.0021187,-0.0020998,25:09.1
0.0054288,-0.00028053,-0.0054433,-0.0020395,-0.0020478,25:09.1
0.0048872,-0.00030359,-0.0052022,-0.0018689,-0.0018734,25:09.1
0.0047281,-0.00027123,-0.0051201,-0.0017938,-0.0018165,25:09.1
0.0047924,-0.0002686,-0.0049421,-0.0018033,-0.0018229,25:09.1
0.0050587,-0.00026706,-0.004855,-0.0018826,-0.0019139,25:09.1
0.00558,-0.00026302,-0.0047835,-0.0020297,-0.0020889,25:09.1
0.0061463,-0.00027323,-0.0047075,-0.0022172,-0.0022942,25:09.1
0.0065839,-0.00026004,-0.0046301,-0.0023445,-0.0024334,25:09.1
0.0067046,-0.0002444,-0.004456,-0.0023754,-0.0024654,25:09.1
0.0065995,-0.00023844,-0.0042713,-0.0023224,-0.0024159,25:09.1
0.0062833,-0.00024255,-0.0040539,-0.0021875,-0.0022895,25:09.1
0.0058331,-0.00025845,-0.0038507,-0.0020648,-0.0021729,25:09.1
0.0056012,-0.000262,-0.0036803,-0.0019974,-0.0021172,25:09.1
0.005635,-0.00026084,-0.0035049,-0.0019868,-0.0021175,25:09.1
0.0059487,-0.00026263,-0.0033756,-0.0020879,-0.0022232,25:09.1
0.0065211,-0.00025586,-0.003279,-0.002264,-0.0024239,25:09.1
0.0070321,-0.00025216,-0.003171,-0.0024236,-0.0026164,25:09.1
0.0073807,-0.00024743,-0.0030243,-0.0025473,-0.0027459,25:09.1
0.0075484,-0.00023125,-0.0028598,-0.0025713,-0.002779,25:09.1
0.0073889,-0.00021245,-0.0026503,-0.0024657,-0.0026801,25:09.1
0.0069802,-0.00020718,-0.0023826,-0.0023442,-0.0025587,25:09.1
0.0065706,-0.00021292,-0.0021398,-0.0022178,-0.0024457,25:09.1
0.0063094,-0.0002086,-0.0019159,-0.0020945,-0.0023266,25:09.1
0.0062555,-0.00021772,-0.0017068,-0.00209,-0.0023386,25:09.1
0.0065076,-0.00023741,-0.0015623,-0.0021838,-0.0024352,25:09.1
0.0069744,-0.00023563,-0.0014356,-0.0023284,-0.0025976,25:09.1
0.0074496,-0.00023842,-0.0012757,-0.002493,-0.0027924,25:09.1
0.0078309,-0.00023993,-0.0011037,-0.002586,-0.002881,25:09.1
0.0079121,-0.00022723,-0.00089682,-0.002588,-0.0029253,25:09.1
0.0076721,-0.00022469,-0.00063296,-0.0025096,-0.0028222,25:09.1
0.0072586,-0.00022517,-0.0003563,-0.0023604,-0.0026889,25:09.2
0.0067708,-0.0002285,-9.17E-05,-0.0021927,-0.0025449,25:09.2
0.0064772,-0.00023713,0.00016055,-0.0020889,-0.0023591,25:09.2
0.0064887,-0.00023381,0.00035152,-0.0020905,-0.0025181,25:09.2
0.0067189,-0.00022485,0.00043617,-0.0021587,-0.0023696,25:09.2
0.0071597,-0.00021884,0.00050002,-0.0022944,-0.0021125,25:09.2
0.0076833,-0.00021177,0.00060092,-0.0024554,-0.0026868,25:09.2
0.0079988,-0.0002129,0.00070173,-0.0025425,-0.0030057,25:09.2
0.0079901,-0.00021813,0.00081881,-0.0025498,-0.002856,25:09.2
0.0077861,-0.00021592,0.00097782,-0.0024571,-0.0028435,25:09.2
0.0073765,-0.00021542,0.0011543,-0.0022887,-0.0026375,25:09.2
0.0068598,-0.00021205,0.0012963,-0.0021435,-0.0024789,25:09.2
0.0065612,-0.00020983,0.0014035,-0.0020471,-0.0024238,25:09.2
0.0065233,-0.00021923,0.0014749,-0.0020289,-0.002366,25:09.2
0.0067687,-0.00021876,0.0014796,-0.002117,-0.0024906,25:09.2
0.00727,-0.00020956,0.001451,-0.002263,-0.0026474,25:09.2
0.0076957,-0.00021099,0.0014256,-0.0024004,-0.0027892,25:09.2
0.0079468,-0.00021349,0.0014238,-0.0024948,-0.0028964,25:09.2
0.0080241,-0.00021201,0.0014446,-0.002501,-0.0028909,25:09.2
0.0077473,-0.00021817,0.0015001,-0.0023951,-0.0028034,25:09.2
0.0072394,-0.00021839,0.0016027,-0.0022556,-0.0026607,25:09.2
0.0067994,-0.00020627,0.001686,-0.002116,-0.0025023,25:09.2
0.0064812,-0.00020644,0.0017352,-0.0019936,-0.0023784,25:09.2
0.0064105,-0.00020882,0.0017542,-0.001978,-0.0023597,25:09.2
0.0066848,-0.00020058,0.0017126,-0.0020618,-0.0024396,25:09.2
0.0070585,-0.00019079,0.0016491,-0.0021933,-0.0025711,25:09.2
0.0074341,-0.00017342,0.0015981,-0.0023314,-0.0027171,25:09.2
0.0077305,-0.0001577,0.0015731,-0.0023966,-0.0027831,25:09.2
0.0076781,-0.00015218,0.001604,-0.0023698,-0.0027502,25:09.2
0.0073339,-0.00015007,0.0016816,-0.0022684,-0.0026482,25:09.2
0.0068032,-0.00014595,0.0017802,-0.0020929,-0.0024636,25:09.2
0.0062082,-0.0001425,0.0018805,-0.0018969,-0.0022664,25:09.2
0.0058635,-0.00015218,0.0019554,-0.0017743,-0.0021483,25:09.2
0.0057862,-0.00015432,0.0019879,-0.0017474,-0.0021078,25:09.2
0.0059077,-0.00013865,0.0019846,-0.0017888,-0.002164,25:09.2
0.0062461,-0.00013191,0.0019585,-0.0018988,-0.002301,25:09.2
0.0066379,-0.00012707,0.0019306,-0.0020184,-0.002402,25:09.2
0.0068013,-0.00011258,0.0019396,-0.0020622,-0.0024299,25:09.2
0.0066421,-0.00010244,0.0019897,-0.0020229,-0.002398,25:09.2
0.00632,-0.000103,0.0020812,-0.001889,-0.0022598,25:09.2
0.0057905,-0.00010704,0.0022077,-0.0016826,-0.002045,25:09.2
0.0051506,-0.00011086,0.0023027,-0.0015037,-0.0018634,25:09.2
0.0047794,-0.00011982,0.0023624,-0.0013928,-0.0017495,25:09.2
0.0046635,-0.00012636,0.0024046,-0.0013528,-0.0017074,25:09.2
0.0048046,-0.00012828,0.0023818,-0.0014146,-0.0017763,25:09.2
0.0052187,-0.00012661,0.0023242,-0.0015425,-0.0019129,25:09.2
0.005559,-0.00011248,0.0022912,-0.0016499,-0.0020153,25:09.2
0.0057125,-9.97E-05,0.002278,-0.0017042,-0.0020687,25:09.2
0.0056976,-9.42E-05,0.0023,-0.0016717,-0.0020452,25:09.2
0.0053572,-8.85E-05,0.0023678,-0.0015379,-0.001908,25:09.2
0.0048057,-8.60E-05,0.0024394,-0.0013749,-0.0017361,25:09.3
0.0043287,-8.35E-05,0.0024953,-0.0012203,-0.0015821,25:09.3
0.0039998,-8.18E-05,0.0025316,-0.0010984,-0.0014627,25:09.3
0.0039129,-7.64E-05,0.0025158,-0.0010676,-0.0014298,25:09.3
0.0041422,-6.07E-05,0.0024465,-0.0011273,-0.0014919,25:09.3
0.0044468,-3.73E-05,0.0023515,-0.0012262,-0.0015878,25:09.3
0.0046375,-1.57E-05,0.0022609,-0.0012956,-0.001646,25:09.3
0.0046855,-1.21E-05,0.0022074,-0.0012937,-0.0016548,25:09.3
0.004498,-7.61E-06,0.002187,-0.001227,-0.0015954,25:09.3
0.0040998,8.92E-06,0.0021848,-0.0010958,-0.0014495,25:09.3
0.0035421,1.51E-05,0.0022042,-0.00089943,-0.0012468,25:09.3
0.0029721,1.85E-05,0.0022209,-0.00070701,-0.0010512,25:09.3
0.0026616,2.80E-05,0.0021847,-0.00060605,-0.00094261,25:09.3
0.0026023,3.06E-05,0.0020997,-0.00058823,-0.00091608,25:09.3
0.0027623,3.08E-05,0.0019937,-0.0006352,-0.00098246,25:09.3
0.0031187,3.99E-05,0.0018601,-0.00075171,-0.0011241,25:09.3
0.0034385,5.64E-05,0.0017264,-0.00084966,-0.001199,25:09.3
0.0035418,7.35E-05,0.0016204,-0.00086742,-0.0011982,25:09.3
0.0034089,8.41E-05,0.0015473,-0.0008399,-0.0011661,25:09.3
0.0031137,8.95E-05,0.0015268,-0.00072451,-0.0010334,25:09.3
0.0025909,9.76E-05,0.0015338,-0.0005172,-0.00082051,25:09.3
0.0019839,0.00010249,0.0015247,-0.00034922,-0.00064761,25:09.3
0.0016805,0.00010904,0.0014874,-0.00025834,-0.00054864,25:09.3
0.0016348,0.0001221,0.001411,-0.00024165,-0.00052377,25:09.3
0.0018067,0.00012463,0.0012827,-0.00032929,-0.00060489,25:09.3
0.0022252,0.00013014,0.0011318,-0.00045783,-0.00072892,25:09.3
0.0025516,0.00014869,0.0010115,-0.00055466,-0.00081411,25:09.3
0.0026521,0.00015861,0.00092046,-0.00060582,-0.00086978,25:09.3
0.0026178,0.00016697,0.00085987,-0.00058037,-0.00084509,25:09.3
0.0023104,0.0001799,0.00085367,-0.00046418,-0.00069579,25:09.3
0.0017932,0.00018043,0.0008672,-0.00033078,-0.00053916,25:09.3
0.0014111,0.00018138,0.00086276,-0.00022452,-0.000433,25:09.3
0.0012043,0.00018787,0.00083546,-0.00014984,-0.000354,25:09.3
0.0012597,0.00018744,0.00076118,-0.00018089,-0.00037739,25:09.3
0.0017118,0.00019574,0.00064372,-0.00032989,-0.00051913,25:09.3
0.0022642,0.00019566,0.00052438,-0.00053801,-0.00072726,25:09.3
0.0028067,0.00018265,0.00041549,-0.00075376,-0.00094999,25:09.3
0.003315,0.00019192,0.00034443,-0.00090298,-0.0010875,25:09.3
0.0035717,0.00019652,0.00033758,-0.00098202,-0.0011489,25:09.3
0.0035915,0.00018977,0.00036806,-0.0010095,-0.0011679,25:09.3
0.0034466,0.00018763,0.00043362,-0.00095735,-0.0011006,25:09.3
0.0032945,0.00017618,0.00050617,-0.00090986,-0.0010397,25:09.3
0.0033287,0.00017747,0.00053013,-0.00095691,-0.001076,25:09.3
0.0035478,0.00017532,0.00051649,-0.0010378,-0.0011547,25:09.3
0.0039508,0.00014881,0.00046883,-0.0011755,-0.0012956,25:09.3
0.004478,0.00013959,0.00038972,-0.0013888,-0.0014955,25:09.3
0.00494,0.00014149,0.0002842,-0.0015255,-0.001627,25:09.3
0.0051242,0.00012654,0.00018958,-0.001568,-0.001671,25:09.3
0.0050494,0.00010657,0.00011083,-0.0015806,-0.0016595,25:09.3
0.0048625,9.79E-05,-2.42E-06,-0.0015126,-0.0015668,25:09.3
0.0044871,9.91E-05,-0.0001075,-0.0013758,-0.0014229,25:09.4
0.0041247,8.90E-05,-0.0003316,-0.0012985,-0.0013264,25:09.4
0.0041157,7.47E-05,-0.0006683,-0.0013297,-0.0013269,25:09.4
0.0043437,6.40E-05,-0.00098337,-0.0014064,-0.0013856,25:09.4
0.0048234,3.16E-05,-0.0014325,-0.001572,-0.0015309,25:09.4
0.0055653,6.01E-06,-0.0019771,-0.001835,-0.0017634,25:09.4
0.0061739,-2.61E-06,-0.0026782,-0.0020456,-0.0019488,25:09.4
0.0065371,-3.71E-05,-0.0034757,-0.0021747,-0.0020625,25:09.4
0.0067077,-6.82E-05,-0.0042667,-0.0022245,-0.0020969,25:09.4
0.0065144,-8.54E-05,-0.0052307,-0.0021544,-0.0020006,25:09.4
0.0060646,-0.00011659,-0.0059649,-0.0020325,-0.0018709,25:09.4
0.0056975,-0.00013664,-0.0066309,-0.0019301,-0.0017706,25:09.4
0.0054979,-0.00014087,-0.0074413,-0.0018891,-0.0016861,25:09.4
0.0055153,-0.0001499,-0.0081449,-0.001933,-0.001673,25:09.4
0.0058247,-0.00016542,-0.0093734,-0.0020406,-0.001754,25:09.4
0.0062443,-0.00018256,-0.010678,-0.0021961,-0.0018969,25:09.4
0.0065924,-0.00018615,-0.011177,-0.0023375,-0.0020317,25:09.4
0.006798,-0.00017502,-0.011236,-0.0023886,-0.0020751,25:09.4
0.0067666,-0.00018817,-0.01106,-0.0023591,-0.0020426,25:09.4
0.0064908,-0.00021629,-0.010888,-0.0022788,-0.0019695,25:09.4
0.0060872,-0.00021939,-0.010838,-0.0021451,-0.0018399,25:09.4
0.0057699,-0.00022105,-0.01071,-0.0020187,-0.0017199,25:09.4
0.0056799,-0.00021505,-0.010514,-0.001998,-0.0017067,25:09.4
0.0058297,-0.00020729,-0.010239,-0.002058,-0.0017744,25:09.4
0.0062137,-0.00021695,-0.00998,-0.0021755,-0.0018984,25:09.4
0.0067457,-0.00021089,-0.0097441,-0.0023569,-0.0020853,25:09.4
0.007217,-0.00021897,-0.0094254,-0.0024757,-0.0022185,25:09.4
0.0073525,-0.00022738,-0.0090648,-0.0024837,-0.0022303,25:09.4
0.0071689,-0.00020722,-0.0086647,-0.0024327,-0.0021759,25:09.4
0.0068271,-0.00021035,-0.0081696,-0.0022733,-0.0020193,25:09.4
0.006204,-0.00021443,-0.0076103,-0.0020263,-0.001764,25:09.4
0.0055117,-0.00020329,-0.0070422,-0.0018167,-0.0015517,25:09.4
0.0051401,-0.00018718,-0.0065014,-0.0016854,-0.0014248,25:09.4
0.0049616,-0.00015509,-0.0060563,-0.0016163,-0.001351,25:09.4
0.0049863,-0.00012915,-0.0056268,-0.0016318,-0.001374,25:09.4
0.0052928,-0.00010647,-0.005137,-0.0017125,-0.0014687,25:09.4
0.0054371,-9.13E-05,-0.0046821,-0.0017544,-0.0015123,25:09.4
0.0052779,-8.33E-05,-0.0043127,-0.0017253,-0.0014685,25:09.4
0.0050425,-6.26E-05,-0.0039592,-0.0016114,-0.0013589,25:09.4
0.0045228,-4.86E-05,-0.003574,-0.0013957,-0.0011651,25:09.4
0.0037196,-4.11E-05,-0.0032458,-0.0011766,-0.00090061,25:09.4
0.0030719,-3.66E-05,-0.0029332,-0.00098447,-0.00068126,25:09.4
0.0026522,-3.75E-05,-0.0025931,-0.00081692,-0.00057092,25:09.4
0.0024223,-2.99E-05,-0.0023172,-0.00075067,-0.00052469,25:09.4
0.0024828,-2.13E-05,-0.0020824,-0.00076331,-0.00053247,25:09.4
0.0026527,-1.84E-05,-0.0018787,-0.00080326,-0.00058316,25:09.4
0.0026694,-2.57E-05,-0.0016857,-0.00083265,-0.00062491,25:09.4
0.0024928,-2.02E-05,-0.0014861,-0.0007536,-0.00054232,25:09.4
0.0020788,1.48E-05,-0.0012681,-0.00058644,-0.00033993,25:09.4
0.0013889,2.19E-05,-0.00097855,-0.00039646,-0.00015385,25:09.4
0.00053195,2.06E-05,-0.00069612,-0.0001392,9.91E-05,25:09.5
-0.00024199,5.81E-05,-0.00047564,0.00012259,0.00040248,25:09.5
-0.000719,7.13E-05,-0.00030246,0.00029591,0.00057412,25:09.5
-0.0010164,6.11E-05,-0.00019372,0.00041158,0.00065943,25:09.5
-0.0012295,7.46E-05,-0.00014154,0.00047165,0.00072827,25:09.5
-0.001279,9.66E-05,-0.00012573,0.00048294,0.00076839,25:09.5
-0.001423,0.00011294,-0.0001209,0.00053068,0.00082182,25:09.5
-0.0019221,0.00011688,-9.03E-05,0.00068586,0.00098296,25:09.5
-0.0025758,0.00012246,-5.20E-05,0.00091016,0.0012353,25:09.5
-0.0033998,0.00012855,-3.62E-05,0.0011806,0.0015221,25:09.5
-0.0044493,0.0001154,-1.37E-05,0.0015095,0.0018645,25:09.5
-0.0052048,0.00011234,-6.16E-05,0.0017752,0.0021444,25:09.5
-0.005595,0.0001194,-0.00020773,0.0019155,0.0022923,25:09.5
-0.0058837,0.00011702,-0.00036754,0.0019788,0.0023757,25:09.5
-0.0058381,0.00012414,-0.00059197,0.0019449,0.0023628,25:09.5
-0.005518,0.0001234,-0.00088688,0.0018415,0.0022719,25:09.5
-0.0053231,0.00011345,-0.0012024,0.0017704,0.0022117,25:09.5
-0.0053273,0.00012368,-0.001498,0.0017615,0.00222,25:09.5
-0.0053975,0.00013128,-0.0017853,0.0017998,0.0022838,25:09.5
-0.0056504,0.00014085,-0.0021197,0.0019014,0.0024126,25:09.5
-0.0061217,0.00014929,-0.002456,0.0020233,0.002558,25:09.5
-0.0063881,0.00012117,-0.0028398,0.0020876,0.0026259,25:09.5
-0.006367,9.84E-05,-0.0032404,0.0020841,0.0026097,25:09.5
-0.0061323,8.58E-05,-0.0036316,0.0019932,0.002509,25:09.5
-0.0055695,5.87E-05,-0.0041023,0.0018117,0.002317,25:09.5
-0.0049512,4.84E-05,-0.0045555,0.0015929,0.0020867,25:09.5
-0.0044712,4.08E-05,-0.0050361,0.0013986,0.0018965,25:09.5
-0.0041384,3.28E-05,-0.0054929,0.0013041,0.001804,25:09.5
-0.004075,2.94E-05,-0.0057527,0.0013071,0.0017782,25:09.5
-0.0042617,5.24E-06,-0.0060309,0.0013625,0.0017906,25:09.5
-0.0045829,-2.84E-05,-0.0063559,0.0014866,0.0018395,25:09.5
-0.0048082,-7.72E-05,-0.0065792,0.0016146,0.0018416,25:09.5
-0.0047866,-0.00012446,-0.0067905,0.0016345,0.00176,25:09.5
-0.0045798,-0.00014807,-0.0070186,0.0015748,0.0016499,25:09.5
-0.0042227,-0.00018032,-0.0072788,0.001496,0.0014922,25:09.5
-0.0037722,-0.00019308,-0.007508,0.0013929,0.0012781,25:09.5
-0.0034105,-0.00015145,-0.0074726,0.0013098,0.0011463,25:09.5
-0.0033215,-7.19E-05,-0.0072209,0.001323,0.0011421,25:09.5
-0.0034121,2.11E-05,-0.0069428,0.0013858,0.0011723,25:09.5
-0.003629,0.00012629,-0.006606,0.0014774,0.0012917,25:09.5
-0.0040443,0.00025894,-0.006237,0.0016579,0.0015207,25:09.5
-0.0042831,0.00041042,-0.0058822,0.0017508,0.0017136,25:09.5
-0.0041605,0.00062874,-0.0055115,0.0016701,0.001823,25:09.5
-0.0039215,0.00089148,-0.0051944,0.0015472,0.0018465,25:09.5
-0.0034094,0.0011315,-0.0049069,0.0012245,0.0017885,25:09.5
-0.0026371,0.0013991,-0.0045636,0.00073795,0.0017202,25:09.5
-0.0021106,0.0016291,-0.0041833,0.00038299,0.0016849,25:09.5
-0.001876,0.0017613,-0.0038114,0.0001029,0.0016941,25:09.5
-0.0017267,0.0018633,-0.0034344,-0.00011078,0.0017452,25:09.5
-0.0018184,0.0019136,-0.0030066,-0.00015727,0.0018329,25:09.5
-0.0021274,0.0018346,-0.0026461,-0.00014626,0.0018866,25:09.6
-0.0023077,0.0016446,-0.002417,-0.00018569,0.0018468,25:09.6
-0.0022554,0.0014936,-0.0022508,-0.00027923,0.0017774,25:09.6
-0.0020214,0.0013162,-0.0021764,-0.00038503,0.0016355,25:09.6
-0.0016215,0.00097461,-0.0022006,-0.00048891,0.0013757,25:09.6
-0.0012419,0.000646,-0.0023765,-0.00056244,0.0011272,25:09.6
-0.001081,0.00043209,-0.0026482,-0.00055772,0.00096417,25:09.6
-0.0010878,0.00031536,-0.0027461,-0.00047113,0.00087982,25:09.6
-0.0012155,0.00026691,-0.0026693,-0.00032809,0.00084349,25:09.6
-0.001504,0.00022559,-0.0025691,-0.00017702,0.00084374,25:09.6
-0.0018326,0.00026131,-0.0024855,1.10E-05,0.0009074,25:09.6
-0.0020433,0.00033056,-0.0024802,0.00020247,0.00094929,25:09.6
-0.002018,0.00032303,-0.0025532,0.00026911,0.00087943,25:09.6
-0.0017619,0.00030176,-0.0026393,0.00025665,0.00076174,25:09.6
-0.0014216,0.00031387,-0.0026955,0.00020647,0.00062986,25:09.6
-0.00095617,0.00034711,-0.0027096,0.00010039,0.0004652,25:09.6
-0.0005277,0.00039003,-0.0027079,4.79E-05,0.00035307,25:09.6
-0.00045598,0.00041817,-0.0026817,9.28E-05,0.00033809,25:09.6
-0.00059446,0.00041523,-0.00261,0.0001756,0.00036845,25:09.6
-0.00090113,0.00039529,-0.0024939,0.00030619,0.0004672,25:09.6
-0.0014073,0.00037259,-0.0023374,0.00048864,0.00061478,25:09.6
-0.001731,0.000344,-0.0021842,0.00062326,0.00069022,25:09.6
-0.0017526,0.00032557,-0.0020718,0.00065332,0.00068462,25:09.6
-0.0016624,0.00031833,-0.0019869,0.00063891,0.00063431,25:09.6
-0.0014063,0.00031338,-0.0019265,0.00057007,0.00052531,25:09.6
-0.00097602,0.0003177,-0.0018817,0.00043881,0.00040578,25:09.6
-0.00072502,0.00032009,-0.0018145,0.00036248,0.00032804,25:09.6
-0.00079697,0.00032235,-0.001725,0.00038092,0.00031696,25:09.6
-0.0009711,0.0003277,-0.0016031,0.00046386,0.00039284,25:09.6
-0.0013331,0.00031528,-0.0014408,0.00060736,0.00051856,25:09.6
-0.0018915,0.00029619,-0.0012909,0.00077311,0.00066704,25:09.6
-0.0022609,0.00028422,-0.0011529,0.00090195,0.00078614,25:09.6
-0.002372,0.00026743,-0.0010227,0.00094804,0.00080461,25:09.6
-0.0022945,0.00025797,-0.00093781,0.00091517,0.00075896,25:09.6
-0.0019949,0.00025827,-0.0008652,0.00083784,0.0006745,25:09.6
-0.0016571,0.00025039,-0.00077932,0.00073823,0.00055683,25:09.6
-0.0014579,0.00024707,-0.00069562,0.00066282,0.00047641,25:09.6
-0.0014332,0.00025053,-0.00056218,0.00068194,0.00048048,25:09.6
-0.0016347,0.00024109,-0.0003708,0.00078012,0.00056266,25:09.6
-0.0020279,0.00022375,-0.0001871,0.00088376,0.00068012,25:09.6
-0.0024755,0.00020247,9.99E-06,0.0010115,0.00081399,25:09.6
-0.00281,0.00018106,0.00019732,0.0011284,0.00092365,25:09.6
-0.0028421,0.00017482,0.00029965,0.0011355,0.00093385,25:09.6
-0.0026289,0.00016912,0.00035982,0.0010727,0.00087698,25:09.6
-0.0023574,0.00015262,0.00040876,0.00096972,0.00077591,25:09.6
-0.0019736,0.00014974,0.00044111,0.00082294,0.00062597,25:09.6
-0.0016407,0.00015835,0.0004958,0.00072829,0.00053088,25:09.6
-0.0016387,0.00015391,0.00059302,0.00073081,0.00053708,25:09.6
-0.0018023,0.00014932,0.00071835,0.00077487,0.00059031,25:09.6
-0.0020736,0.00015298,0.00086659,0.00086646,0.0006887,25:09.6
-0.0024932,0.00014035,0.0010217,0.0010065,0.00081527,25:09.7
-0.0027436,0.00012049,0.0011355,0.0010809,0.00088524,25:09.7
-0.0026842,0.00011746,0.0012008,0.001064,0.00087279,25:09.7
-0.0024692,0.00012176,0.0012367,0.00098791,0.00078919,25:09.7
-0.002106,0.00012548,0.0012362,0.00083915,0.00064217,25:09.7
-0.0016071,0.00013014,0.0012174,0.00069246,0.00048846,25:09.7
-0.001261,0.0001351,0.0012272,0.00059473,0.00038082,25:09.7
-0.0012138,0.0001349,0.0012742,0.00055351,0.00034784,25:09.7
-0.0012822,0.00013833,0.0013531,0.00059753,0.00040272,25:09.7
-0.0015026,0.00015754,0.0014715,0.00068566,0.0005214,25:09.7
-0.0018755,0.00014945,0.0015724,0.00078162,0.00063048,25:09.7
-0.0020714,0.00011172,0.0016276,0.0008452,0.00067004,25:09.7
-0.0020016,9.66E-05,0.0016702,0.00082562,0.00064609,25:09.7
-0.0017281,8.79E-05,0.0016623,0.00072282,0.00054393,25:09.7
-0.0012669,7.79E-05,0.0016054,0.00056648,0.00038077,25:09.7
-0.00077492,7.36E-05,0.0015539,0.00040613,0.00021533,25:09.7
-0.00042825,5.86E-05,0.0015199,0.00028167,7.88E-05,25:09.7
-0.0003114,5.45E-05,0.0015324,0.00023741,3.68E-05,25:09.7
-0.00041102,5.72E-05,0.0015845,0.00027213,7.58E-05,25:09.7
-0.00065146,4.50E-05,0.0016392,0.00033421,0.00013302,25:09.7
-0.00092018,3.41E-05,0.0017002,0.00042106,0.00022426,25:09.7
-0.0010867,1.97E-05,0.001742,0.0004831,0.00027951,25:09.7
-0.00098902,-4.98E-06,0.0017329,0.00044096,0.00022161,25:09.7
-0.0006353,-1.69E-05,0.0016916,0.00033434,0.00010478,25:09.7
-0.00023377,-1.43E-05,0.0016319,0.00019541,-5.41E-05,25:09.7
0.00023982,-6.06E-06,0.0015646,1.57E-05,-0.00024341,25:09.7
0.00067346,-6.44E-07,0.0015337,-0.00010634,-0.00036526,25:09.7
0.00077389,-9.55E-06,0.0015553,-0.00011783,-0.00039422,25:09.7
0.00068258,-1.73E-05,0.0016091,-9.19E-05,-0.00037896,25:09.7
0.00049481,-2.26E-05,0.0016969,-1.48E-05,-0.00030082,25:09.7
0.00018437,-3.32E-05,0.0017971,0.000102,-0.00019188,25:09.7
3.81E-05,-3.73E-05,0.001854,0.00014083,-0.00016561,25:09.7
0.00018889,-4.43E-05,0.0018608,0.000103,-0.00021149,25:09.7
0.00048809,-5.58E-05,0.0018437,7.50E-06,-0.00031367,25:09.7
0.00092458,-6.21E-05,0.001804,-0.0001597,-0.00049632,25:09.7
0.0014786,-6.78E-05,0.0017538,-0.00031613,-0.00066226,25:09.7
0.0018612,-7.41E-05,0.0017364,-0.00041783,-0.00076091,25:09.7
0.0019388,-8.95E-05,0.0017682,-0.00045794,-0.00080712,25:09.7
0.0018765,-0.00011301,0.001844,-0.00041756,-0.00078231,25:09.7
0.0016657,-0.00012447,0.0019538,-0.00032962,-0.00070665,25:09.7
0.0013431,-0.00013067,0.0020622,-0.00024259,-0.00062714,25:09.7
0.001201,-0.0001576,0.0021378,-0.00020132,-0.00059532,25:09.7
0.0013235,-0.00018614,0.002176,-0.00022247,-0.00063065,25:09.7
0.0016482,-0.00018788,0.0021836,-0.00032851,-0.00073454,25:09.7
0.0021354,-0.00018539,0.0021714,-0.00050909,-0.00089414,25:09.7
0.0026285,-0.00018803,0.0021579,-0.00067081,-0.0010602,25:09.7
0.0029676,-0.00019171,0.0021647,-0.00077514,-0.0011853,25:09.7
0.003077,-0.00020832,0.0022269,-0.00080044,-0.0012152,25:09.7
0.0029586,-0.00021547,0.0023414,-0.00074061,-0.0011645,25:09.7
0.002703,-0.00021194,0.0024607,-0.00066042,-0.0010762,25:09.7
0.0024312,-0.00021913,0.0025825,-0.00056793,-0.00096196,25:09.8
0.0022615,-0.00021869,0.0026871,-0.00050414,-0.00091304,25:09.8
0.0023578,-0.00021801,0.0027422,-0.00054665,-0.00096768,25:09.8
0.0027027,-0.00022168,0.0027689,-0.00065342,-0.0010667,25:09.8
0.0030827,-0.00021419,0.002771,-0.00079725,-0.0012177,25:09.8
0.0035004,-0.00021141,0.0027618,-0.00096949,-0.0013922,25:09.8
0.0038499,-0.00020725,0.0027885,-0.0010713,-0.0014807,25:09.8
0.0038798,-0.0002038,0.0028719,-0.0010719,-0.0014679,25:09.8
0.003697,-0.00021501,0.0029904,-0.0010322,-0.0014173,25:09.8
0.0033972,-0.00022449,0.0031309,-0.00094245,-0.0013181,25:09.8
0.003005,-0.00024219,0.0032839,-0.00081642,-0.0011875,25:09.8
0.0027864,-0.0002582,0.0033936,-0.00076326,-0.0011355,25:09.8
0.0028571,-0.00025058,0.0034428,-0.00079539,-0.0011636,25:09.8
0.0030674,-0.00025739,0.0034629,-0.0008816,-0.0012461,25:09.8
0.0034221,-0.0002738,0.0034498,-0.0010281,-0.0013864,25:09.8
0.0038676,-0.00026585,0.0034093,-0.0011612,-0.0014995,25:09.8
0.0040922,-0.00026234,0.0034024,-0.0012294,-0.0015605,25:09.8
0.0040529,-0.00027202,0.0034527,-0.0012349,-0.0015719,25:09.8
0.0038228,-0.00028022,0.0035242,-0.0011612,-0.0014887,25:09.8
0.0034015,-0.00028874,0.0036132,-0.0010354,-0.0013415,25:09.8
0.0030076,-0.00029102,0.0036937,-0.00091009,-0.0012068,25:09.8
0.0027848,-0.00030612,0.0037259,-0.00083317,-0.001136,25:09.8
0.0027451,-0.000331,0.0037247,-0.0008333,-0.0011287,25:09.8
0.0029361,-0.00033154,0.0036811,-0.00090793,-0.0011832,25:09.8
0.0032889,-0.00032332,0.0036012,-0.0010254,-0.0012939,25:09.8
0.0036061,-0.00031484,0.0035248,-0.001133,-0.0014003,25:09.8
0.0037317,-0.00030842,0.0034722,-0.0011934,-0.0014455,25:09.8
0.0036531,-0.0003154,0.0034589,-0.0011624,-0.0013996,25:09.8
0.0033431,-0.00030979,0.0034763,-0.0010477,-0.00128,25:09.8
0.002845,-0.00030233,0.0035135,-0.00091568,-0.0011211,25:09.8
0.0023606,-0.00031893,0.0035481,-0.00077469,-0.00096495,25:09.8
0.0020126,-0.00033226,0.00353,-0.00066376,-0.00087655,25:09.8
0.0019203,-0.00033085,0.0034549,-0.00065001,-0.00086129,25:09.8
0.0020909,-0.00032587,0.0033426,-0.00069994,-0.00089503,25:09.8
0.002327,-0.00031418,0.0031767,-0.00079302,-0.00097197,25:09.8
0.0025702,-0.0003007,0.0029875,-0.00090767,-0.0010693,25:09.8
0.0027059,-0.00028751,0.002847,-0.00093504,-0.001091,25:09.8
0.0025432,-0.00026518,0.0027365,-0.00087007,-0.00099947,25:09.8
0.0021671,-0.00025314,0.0026459,-0.00076872,-0.0008873,25:09.8
0.0016345,-0.0002626,0.002618,-0.00059477,-0.00072864,25:09.8
0.0010331,-0.00026502,0.0025889,-0.00040884,-0.00052462,25:09.8
0.00067488,-0.00025292,0.0025011,-0.0003133,-0.00040999,25:09.8
0.00059236,-0.00024689,0.0023993,-0.00027943,-0.00038209,25:09.8
0.00062534,-0.00025098,0.0022516,-0.00030857,-0.00040896,25:09.8
0.00083504,-0.00024027,0.002045,-0.00040578,-0.00049094,25:09.8
0.0011083,-0.00022055,0.0018704,-0.00048022,-0.00056065,25:09.8
