ecg1,ecg2,ecg3,ecg4,ecg5,tstamp
-0.036633,-0.00032726,0.011026,0.012079,0.011707,23:05.2
-0.050022,-1.22E-05,0.012225,0.015107,0.016303,23:05.2
-0.039019,0.00091179,0.011334,0.01319,0.013302,23:05.2
-0.044876,0.0019814,0.012076,0.014811,0.015871,23:05.2
-0.041787,0.0025692,0.01184,0.014223,0.015256,23:05.2
-0.04169,0.0025978,0.011669,0.013841,0.015232,23:05.2
-0.043721,0.0020938,0.011504,0.013579,0.015556,23:05.2
-0.042025,0.001567,0.011034,0.012615,0.014622,23:05.2
-0.043569,0.0013679,0.011036,0.012518,0.014969,23:05.2
-0.042375,0.0013896,0.010958,0.012043,0.01463,23:05.2
-0.042032,0.0015232,0.011052,0.01198,0.014647,23:05.2
-0.042166,0.0015009,0.011114,0.011985,0.014721,23:05.2
-0.041275,0.0014974,0.011057,0.011852,0.01449,23:05.2
-0.04123,0.0018424,0.011168,0.012046,0.014763,23:05.2
-0.040537,0.0019133,0.011135,0.011929,0.014633,23:05.2
-0.040447,0.0016076,0.011056,0.011948,0.014503,23:05.2
-0.040025,0.0015651,0.01098,0.012106,0.01449,23:05.2
-0.039458,0.0015616,0.010785,0.01222,0.014403,23:05.2
-0.0396,0.0012693,0.010562,0.012293,0.01428,23:05.2
-0.039604,0.00082123,0.010381,0.012152,0.013953,23:05.2
-0.039311,0.0010133,0.010482,0.012279,0.013888,23:05.2
-0.038314,0.0020308,0.010851,0.012685,0.014131,23:05.2
-0.03782,0.0025359,0.011035,0.012899,0.014272,23:05.2
-0.03835,0.0021475,0.010933,0.0128,0.014101,23:05.2
-0.039412,0.0010646,0.010582,0.012416,0.013622,23:05.2
-0.040631,-0.000197,0.010171,0.012124,0.01326,23:05.2
-0.041076,-0.00068163,0.010046,0.012093,0.013114,23:05.2
-0.041042,-0.00067236,0.010101,0.012119,0.013044,23:05.2
-0.040748,-0.00029029,0.010317,0.012311,0.01322,23:05.2
-0.04052,0.00019866,0.010581,0.012569,0.013457,23:05.2
-0.040766,0.00032731,0.01073,0.012762,0.013636,23:05.2
-0.041044,0.00048795,0.010926,0.012993,0.013888,23:05.2
-0.041557,0.00048041,0.011028,0.013128,0.014014,23:05.2
-0.041651,0.00073454,0.01119,0.01332,0.014199,23:05.3
-0.040837,0.0017123,0.011595,0.013675,0.014592,23:05.3
-0.040344,0.0022414,0.011797,0.013815,0.014764,23:05.3
-0.040556,0.001852,0.011697,0.013655,0.014602,23:05.3
-0.04115,0.0010334,0.011413,0.01333,0.01423,23:05.3
-0.041686,0.00021909,0.011049,0.013001,0.013806,23:05.3
-0.041791,-0.00024658,0.010834,0.012833,0.013587,23:05.3
-0.041741,-0.00031621,0.010757,0.012796,0.013557,23:05.3
-0.041548,-9.22E-05,0.010771,0.012849,0.013609,23:05.3
-0.041313,0.00017194,0.010845,0.012946,0.013722,23:05.3
-0.041232,0.00031215,0.010872,0.01299,0.013774,23:05.3
-0.041109,0.00038641,0.010905,0.013007,0.01378,23:05.3
-0.040991,0.0005946,0.011095,0.013123,0.013931,23:05.3
-0.040736,0.00091981,0.011269,0.013207,0.014019,23:05.3
-0.040275,0.00096156,0.01118,0.013039,0.013829,23:05.3
-0.040028,0.00077743,0.011035,0.012826,0.013667,23:05.3
-0.039993,0.00068685,0.010969,0.012756,0.01362,23:05.3
-0.040036,0.00065758,0.010894,0.012769,0.013589,23:05.3
-0.040203,0.00063268,0.010843,0.012826,0.01365,23:05.3
-0.040522,0.00067924,0.010878,0.01295,0.013815,23:05.3
-0.040928,0.00078412,0.010954,0.013117,0.014001,23:05.3
-0.041177,0.0007885,0.010946,0.013161,0.01408,23:05.3
-0.041325,0.0008272,0.010999,0.01317,0.014156,23:05.3
-0.041459,0.00084284,0.01107,0.013144,0.014197,23:05.3
-0.041471,0.00047798,0.010856,0.012844,0.013956,23:05.3
-0.04133,0.00020469,0.010651,0.012598,0.013727,23:05.3
-0.041257,0.00020542,0.010617,0.012585,0.013697,23:05.3
-0.041447,0.00010914,0.010541,0.012586,0.013701,23:05.3
-0.041486,0.00023196,0.010522,0.012669,0.0138,23:05.3
-0.041198,0.00055917,0.010548,0.012752,0.013908,23:05.3
-0.0406,0.0010025,0.010599,0.012818,0.014005,23:05.3
-0.03977,0.0015872,0.010662,0.012914,0.01413,23:05.3
-0.039344,0.00158,0.010496,0.012722,0.013975,23:05.3
-0.039208,0.00098913,0.010153,0.012258,0.01354,23:05.3
-0.038878,0.00052843,0.0098181,0.011802,0.013118,23:05.3
-0.038433,0.00033004,0.0095688,0.011423,0.012792,23:05.3
-0.037801,0.00042654,0.0094649,0.01124,0.012681,23:05.3
-0.036836,0.0010011,0.0095081,0.011296,0.012815,23:05.3
-0.035909,0.0017331,0.0095943,0.011392,0.012943,23:05.3
-0.035717,0.0017101,0.0094126,0.011314,0.012845,23:05.3
-0.036178,0.0009575,0.0089864,0.011051,0.012543,23:05.3
-0.036538,0.00033185,0.0085895,0.010765,0.01218,23:05.3
-0.036331,1.03E-05,0.0082333,0.010544,0.011862,23:05.3
-0.035443,-1.97E-05,0.0079797,0.010265,0.01157,23:05.3
-0.034148,0.00015694,0.0077439,0.0098839,0.011239,23:05.3
-0.03289,0.00028104,0.007412,0.0095535,0.010935,23:05.3
-0.031762,0.00043593,0.0071692,0.0093,0.0107,23:05.3
-0.030804,0.00060174,0.0069759,0.0090673,0.010479,23:05.3
-0.030198,0.00078631,0.0067936,0.0089521,0.010374,23:05.3
-0.029688,0.0011235,0.0067273,0.0089765,0.010422,23:05.3
-0.02914,0.0012751,0.006551,0.0088851,0.010341,23:05.4
-0.028848,0.0010429,0.0062204,0.0086014,0.010062,23:05.4
-0.028555,0.00069789,0.0059116,0.0082857,0.0097654,23:05.4
-0.02782,0.00047872,0.0055864,0.0079188,0.0094225,23:05.4
-0.026694,0.00060334,0.005334,0.0075701,0.0091065,23:05.4
-0.025332,0.00098734,0.0051033,0.0073153,0.0089057,23:05.4
-0.023997,0.0012605,0.0047543,0.0070241,0.0086831,23:05.4
-0.023099,0.0012485,0.004362,0.0066261,0.0083258,23:05.4
-0.022658,0.00088576,0.0039089,0.0061759,0.0078699,23:05.4
-0.022394,0.00033099,0.0034626,0.0057807,0.0074843,23:05.4
-0.021982,-4.49E-06,0.003072,0.0054457,0.0071795,23:05.4
-0.021207,3.23E-05,0.0027506,0.0051875,0.0069174,23:05.4
-0.020197,0.00018904,0.0025194,0.0049529,0.006699,23:05.4
-0.0192,0.00023479,0.0022306,0.0046209,0.0064112,23:05.4
-0.018394,0.00024972,0.0019267,0.004285,0.0061067,23:05.4
-0.017655,0.00029735,0.0016843,0.0039873,0.0058708,23:05.4
-0.016916,0.00032362,0.0014458,0.0037422,0.0056671,23:05.4
-0.016373,0.00038644,0.0012487,0.003597,0.0055317,23:05.4
-0.015998,0.00048407,0.0011258,0.0034793,0.0054724,23:05.4
-0.015659,0.0005456,0.0010418,0.0033703,0.0054188,23:05.4
-0.015291,0.00058111,0.00096868,0.0032516,0.0053338,23:05.4
-0.01495,0.00058343,0.00088186,0.0030694,0.0051915,23:05.4
-0.014442,0.00061988,0.0007764,0.0028585,0.0050151,23:05.4
-0.013599,0.00076575,0.0007221,0.0026285,0.0048592,23:05.4
-0.012781,0.00094081,0.00067594,0.0023941,0.0047066,23:05.4
-0.012125,0.0010539,0.00056062,0.0022181,0.0045677,23:05.4
-0.011816,0.00090718,0.00038901,0.0019996,0.0043971,23:05.4
-0.011955,0.00052461,0.00014642,0.0017345,0.0041764,23:05.4
-0.012026,0.00034277,-4.84E-05,0.0015877,0.0040717,23:05.4
-0.011958,0.00034233,-0.00017834,0.0014937,0.0040603,23:05.4
-0.011882,0.00029234,-0.00038044,0.0013824,0.0039975,23:05.4
-0.011611,0.00030484,-0.00058164,0.0012859,0.0039056,23:05.4
-0.011174,0.00035341,-0.00070869,0.001187,0.0037996,23:05.4
-0.010596,0.00040941,-0.00079787,0.0010715,0.0036535,23:05.4
-0.0099558,0.00050202,-0.00091946,0.00092592,0.0034942,23:05.4
-0.0094123,0.00059216,-0.001083,0.00082432,0.0033807,23:05.4
-0.0090277,0.00065778,-0.0012087,0.0007831,0.003306,23:05.4
-0.0088912,0.00065004,-0.0013207,0.00076389,0.0032565,23:05.4
-0.0088637,0.00067182,-0.0014296,0.0008114,0.003268,23:05.4
-0.0088554,0.00068995,-0.001546,0.00085089,0.0032713,23:05.4
-0.0087395,0.00071292,-0.0016595,0.00084942,0.0032575,23:05.4
-0.0083659,0.00089642,-0.0017618,0.00084069,0.0032694,23:05.4
-0.0079787,0.00094505,-0.0019622,0.00072266,0.0031674,23:05.4
-0.0076996,0.00072003,-0.0021553,0.00049592,0.0029327,23:05.4
-0.0074856,0.00050919,-0.002374,0.00027005,0.0027165,23:05.4
-0.0071498,0.00050454,-0.0027218,0.00012692,0.0025892,23:05.4
-0.0067047,0.00063554,-0.0029812,7.45E-05,0.0025425,23:05.4
-0.0064637,0.00076314,-0.0032,8.40E-05,0.0025635,23:05.4
-0.0063312,0.00094084,-0.0034035,0.00017195,0.0026424,23:05.4
-0.0063537,0.00094876,-0.003565,0.00022303,0.0026619,23:05.4
-0.0066005,0.00065358,-0.0038952,0.00016063,0.0025692,23:05.5
-0.006758,0.00037636,-0.0042486,4.54E-05,0.0024258,23:05.5
-0.0066217,0.00023567,-0.0043611,-0.00010355,0.0022603,23:05.5
-0.006148,0.00026126,-0.0042564,-0.00020194,0.0021344,23:05.5
-0.0055837,0.00039989,-0.0041221,-0.00024924,0.0020448,23:05.5
-0.0051462,0.00048665,-0.004011,-0.0003124,0.0019661,23:05.5
-0.004864,0.00054508,-0.0038308,-0.00033329,0.0019321,23:05.5
-0.0048002,0.00058056,-0.0037188,-0.00030538,0.0019328,23:05.5
-0.0048469,0.00057991,-0.0036917,-0.00025588,0.0019619,23:05.5
-0.0048698,0.00062583,-0.0035544,-0.00017762,0.0020167,23:05.5
-0.0047974,0.00074054,-0.0033466,-0.00011153,0.0020568,23:05.5
-0.0046008,0.00081571,-0.003201,-0.00010227,0.0020345,23:05.5
-0.0043819,0.00075068,-0.0031037,-0.00017255,0.0019342,23:05.5
-0.0041614,0.00057803,-0.0030225,-0.00032528,0.0017585,23:05.5
-0.0038886,0.00042681,-0.0029408,-0.00048375,0.0015606,23:05.5
-0.0036461,0.00039283,-0.0027471,-0.00056339,0.0014487,23:05.5
-0.0035106,0.00042835,-0.0024829,-0.00057615,0.0014247,23:05.5
-0.0034597,0.00046071,-0.0022633,-0.00055788,0.0014331,23:05.5
-0.0035135,0.00048561,-0.0020621,-0.00052075,0.0014684,23:05.5
-0.0036049,0.00050888,-0.0019173,-0.00047765,0.0015033,23:05.5
-0.0035728,0.0005348,-0.001791,-0.00045003,0.0015123,23:05.5
-0.0034341,0.00055071,-0.0016552,-0.00046641,0.0014861,23:05.5
-0.0031548,0.00055854,-0.0015572,-0.00054059,0.0013919,23:05.5
-0.0027249,0.00055817,-0.0014312,-0.00065754,0.0012455,23:05.5
-0.002405,0.00052334,-0.0013164,-0.00077908,0.0011033,23:05.5
-0.0021924,0.00048663,-0.001246,-0.00086667,0.0009856,23:05.5
-0.0020171,0.0004761,-0.0011723,-0.0008859,0.00092912,23:05.5
-0.0020161,0.00049325,-0.0011059,-0.00083757,0.00095582,23:05.5
-0.0020647,0.00057621,-0.0010094,-0.0007631,0.0010183,23:05.5
-0.0020511,0.00072248,-0.00086593,-0.00066132,0.0011135,23:05.5
-0.0019821,0.00087713,-0.0007314,-0.0005674,0.0011974,23:05.5
-0.0018423,0.00087593,-0.00069323,-0.00059484,0.0011299,23:05.5
-0.0016724,0.00069637,-0.00073772,-0.00071672,0.00094986,23:05.5
-0.0013463,0.00062802,-0.0007384,-0.0008338,0.00078329,23:05.5
-0.00093083,0.00061422,-0.00072163,-0.00096053,0.00061049,23:05.5
-0.00068135,0.0004724,-0.00074048,-0.0010622,0.00045983,23:05.5
-0.000574,0.00039481,-0.00074836,-0.001082,0.00039378,23:05.5
-0.00061994,0.00035168,-0.0007746,-0.0010745,0.00035981,23:05.5
-0.00072127,0.00031334,-0.00078837,-0.0010262,0.00037549,23:05.5
-0.00066754,0.00044671,-0.0007304,-0.00090335,0.00046324,23:05.5
-0.00057808,0.00056766,-0.00066406,-0.00082676,0.00048792,23:05.5
-0.00049804,0.0005042,-0.00060856,-0.00086061,0.00040918,23:05.5
-0.00035126,0.00035256,-0.00057828,-0.00093092,0.00027053,23:05.5
-9.52E-05,0.00026269,-0.00055187,-0.0010031,0.00010763,23:05.5
0.00030797,0.00029828,-0.00046379,-0.0010573,1.04E-05,23:05.5
0.00059282,0.00031029,-0.00040274,-0.0010742,-5.62E-05,23:05.5
0.00066044,0.00030294,-0.00038039,-0.0010525,-0.00010483,23:05.5
0.00069495,0.00038013,-0.0003217,-0.00095609,-5.58E-05,23:05.5
0.00060728,0.00044401,-0.00028218,-0.00081575,3.51E-05,23:05.5
0.00044712,0.00048094,-0.00027174,-0.00071581,9.51E-05,23:05.5
0.00040668,0.00048351,-0.00028247,-0.00066581,0.00010335,23:05.6
0.0004424,0.00041879,-0.00033285,-0.00067134,6.13E-05,23:05.6
0.0006292,0.00038132,-0.00037036,-0.00073978,-3.02E-05,23:05.6
0.00095931,0.00036641,-0.00036855,-0.00081839,-0.00015531,23:05.6
0.0012082,0.00034458,-0.00032855,-0.00088709,-0.00025852,23:05.6
0.0013801,0.00034538,-0.00027722,-0.00095085,-0.00033694,23:05.6
0.0014828,0.00034335,-0.00025702,-0.00095162,-0.00036053,23:05.6
0.0013912,0.00032616,-0.00023477,-0.00088415,-0.00032018,23:05.6
0.0012077,0.00032042,-0.00019844,-0.00081627,-0.00027516,23:05.6
0.0010967,0.00035461,-0.00016998,-0.00074636,-0.0002114,23:05.6
0.0010856,0.00043291,-0.0001347,-0.00068398,-0.00015643,23:05.6
0.0013008,0.00055313,-8.59E-05,-0.00067911,-0.0001576,23:05.6
0.0016695,0.00064367,-3.42E-05,-0.00072964,-0.00020496,23:05.6
0.0019003,0.00060321,-4.51E-05,-0.00085621,-0.00033651,23:05.6
0.0020403,0.00045157,-0.00013181,-0.0010334,-0.00051509,23:05.6
0.0021225,0.00026883,-0.00020386,-0.0011472,-0.00063712,23:05.6
0.002077,0.00017959,-0.00026737,-0.0011697,-0.00067697,23:05.6
0.0019891,0.00020522,-0.00033673,-0.0011364,-0.00063738,23:05.6
0.0018696,0.00025636,-0.00036445,-0.0010625,-0.00054936,23:05.6
0.0017187,0.00029196,-0.00037738,-0.00098476,-0.00047702,23:05.6
0.0015978,0.00026403,-0.00039775,-0.00095929,-0.00045404,23:05.6
0.0018195,0.0004025,-0.00037356,-0.00094029,-0.00042362,23:05.6
0.0025053,0.00084702,-0.00028883,-0.00087188,-0.0003663,23:05.6
0.0031103,0.0011496,-0.00022909,-0.00088206,-0.00039062,23:05.6
0.0032597,0.00099824,-0.0002774,-0.0010463,-0.0005302,23:05.6
0.0029628,0.00049581,-0.00045725,-0.0012626,-0.00074539,23:05.6
0.0024667,-4.63E-06,-0.00068728,-0.0013855,-0.00092737,23:05.6
0.0021582,-0.00019398,-0.0008493,-0.0013423,-0.00093811,23:05.6
0.0019947,-0.00017362,-0.00093915,-0.0012327,-0.00084923,23:05.6
0.0018727,-6.00E-05,-0.00095305,-0.0011252,-0.00075243,23:05.6
0.0019205,7.11E-05,-0.00096941,-0.0010421,-0.0006771,23:05.6
0.0020881,0.00016322,-0.0010477,-0.0010303,-0.00067678,23:05.6
0.0023698,0.00024796,-0.0010568,-0.0010628,-0.00072431,23:05.6
0.00281,0.00030223,-0.00099765,-0.001134,-0.00080741,23:05.6
0.0032862,0.00059003,-0.00086794,-0.0011381,-0.000821,23:05.6
0.003881,0.0011723,-0.00064082,-0.0009945,-0.00067412,23:05.6
0.0043546,0.0014712,-0.00051089,-0.00090374,-0.00059072,23:05.6
0.0039275,0.0010992,-0.00057546,-0.00097858,-0.00069079,23:05.6
0.0028383,0.00029915,-0.00071408,-0.0011486,-0.00085066,23:05.6
0.0020539,-0.00033254,-0.00075277,-0.0012909,-0.0009816,23:05.6
0.0017794,-0.00051391,-0.00062496,-0.0012985,-0.001021,23:05.6
0.0019518,-0.0004082,-0.00043933,-0.0012747,-0.0010093,23:05.6
0.0024138,-0.00021086,-0.00029,-0.0013232,-0.0010308,23:05.6
0.0028001,-7.33E-05,-0.0001473,-0.0013872,-0.0010807,23:05.6
0.0031419,1.51E-05,1.23E-05,-0.0014396,-0.0011432,23:05.6
0.0034338,8.85E-05,0.00013358,-0.0014751,-0.0011752,23:05.6
0.0034738,0.00011687,0.00024944,-0.0014532,-0.0011461,23:05.6
0.0033485,0.00014768,0.00039608,-0.0013908,-0.0010954,23:05.6
0.0031579,0.00016003,0.00050519,-0.0013197,-0.0010299,23:05.6
0.002946,0.00015063,0.00057247,-0.0012399,-0.0009545,23:05.6
0.0028481,0.00016056,0.00061316,-0.0011999,-0.00092807,23:05.7
0.0029288,0.00015435,0.00065006,-0.0012222,-0.00096257,23:05.7
0.003154,0.0001506,0.00070915,-0.0012901,-0.0010404,23:05.7
0.0034437,0.00016434,0.00075709,-0.0013933,-0.0011462,23:05.7
0.0037384,0.00017618,0.00077284,-0.0014658,-0.0012263,23:05.7
0.003937,0.00020644,0.0007208,-0.0014861,-0.0012604,23:05.7
0.0039333,0.00022809,0.00061502,-0.0014668,-0.0012545,23:05.7
0.0038212,0.00025321,0.00055189,-0.0013843,-0.0011856,23:05.7
0.0036473,0.0003016,0.00052251,-0.0012728,-0.0010779,23:05.7
0.0034028,0.00030351,0.00044992,-0.0011939,-0.0010121,23:05.7
0.0032499,0.00025377,0.00037674,-0.001172,-0.0010101,23:05.7
0.0032381,0.00016389,0.00033429,-0.001207,-0.0010523,23:05.7
0.0033679,7.58E-05,0.00026543,-0.0012982,-0.0011529,23:05.7
0.0036609,7.33E-05,0.00017743,-0.0014069,-0.001261,23:05.7
0.0039411,9.61E-05,7.98E-05,-0.0014772,-0.0013323,23:05.7
0.0040837,0.00010283,-2.03E-05,-0.001518,-0.0013906,23:05.7
0.0041138,0.00015953,-0.00012435,-0.0014783,-0.0013584,23:05.7
0.0040638,0.00030123,-0.00023151,-0.0013281,-0.0012225,23:05.7
0.003948,0.00044561,-0.00028931,-0.0011917,-0.0011105,23:05.7
0.0037358,0.00042328,-0.00040651,-0.0011136,-0.0010559,23:05.7
0.0034563,0.00023308,-0.00066915,-0.0010943,-0.0010705,23:05.7
0.0033146,1.64E-06,-0.00094997,-0.0011724,-0.0011832,23:05.7
0.0034783,-0.00012311,-0.0011624,-0.0012712,-0.0013199,23:05.7
0.0037714,-8.94E-05,-0.0013036,-0.0013318,-0.0014155,23:05.7
0.0040393,-4.18E-05,-0.0013818,-0.0013792,-0.0014885,23:05.7
0.0042833,-6.85E-06,-0.0014465,-0.0013877,-0.0015242,23:05.7
0.0042943,1.52E-05,-0.0015655,-0.0013355,-0.0014959,23:05.7
0.0042379,0.00015873,-0.0016974,-0.0012089,-0.0014001,23:05.7
0.0045003,0.00064063,-0.0017386,-0.00095,-0.001174,23:05.7
0.0047737,0.0011136,-0.0017165,-0.00065905,-0.00091875,23:05.7
0.0047356,0.0011862,-0.0018869,-0.00058344,-0.0009024,23:05.7
0.0043764,0.00073436,-0.0022998,-0.00075715,-0.0011306,23:05.7
0.0038569,-5.01E-05,-0.0025443,-0.0010266,-0.0014412,23:05.7
0.003718,-0.00048153,-0.0025694,-0.0012274,-0.0016868,23:05.7
0.0039941,-0.00046002,-0.0026466,-0.0012634,-0.001755,23:05.7
0.0041945,-0.00038762,-0.0027339,-0.0012198,-0.0017391,23:05.7
0.0042083,-0.0003054,-0.0027506,-0.0011515,-0.001707,23:05.7
0.0041271,-0.00019929,-0.0026675,-0.0010115,-0.0016011,23:05.7
0.0039833,-9.32E-05,-0.0025383,-0.00084662,-0.0014694,23:05.7
0.0038143,-2.39E-05,-0.0024496,-0.00072943,-0.0013844,23:05.7
0.0037583,1.60E-05,-0.0023316,-0.00066034,-0.0013401,23:05.7
0.0038949,8.16E-05,-0.002193,-0.000633,-0.001335,23:05.7
0.0041944,0.00016784,-0.0020614,-0.00065375,-0.00138,23:05.7
0.0046618,0.00035144,-0.0019106,-0.0006681,-0.0014196,23:05.7
0.0050112,0.00048498,-0.0018064,-0.00067193,-0.0014525,23:05.7
0.0050147,0.00038691,-0.001768,-0.00072123,-0.0015178,23:05.7
0.0048142,0.00022596,-0.0017814,-0.00074243,-0.0015603,23:05.7
0.0044134,4.14E-05,-0.0018462,-0.000712,-0.0015601,23:05.7
0.0039732,-0.00012723,-0.0018616,-0.00066737,-0.0015127,23:05.7
0.0037875,-0.000116,-0.0017733,-0.00058341,-0.0014221,23:05.7
0.0037488,-3.58E-05,-0.0016542,-0.00053863,-0.0013583,23:05.8
0.0038418,-9.15E-06,-0.0015607,-0.00056915,-0.0013774,23:05.8
0.0041421,2.11E-05,-0.0015001,-0.00065422,-0.0014568,23:05.8
0.0044105,5.40E-05,-0.0014564,-0.0007625,-0.0015314,23:05.8
0.0046056,8.00E-05,-0.00144,-0.00080376,-0.0016046,23:05.8
0.0048767,0.00022758,-0.0014145,-0.00085091,-0.0015908,23:05.8
0.0050482,0.00048728,-0.0013448,-0.0008208,-0.0014392,23:05.8
0.0048819,0.00058617,-0.0013284,-0.00062314,-0.0013378,23:05.8
0.0044702,0.00043816,-0.0013956,-0.00055394,-0.0013098,23:05.8
0.0040331,0.00020554,-0.001504,-0.00061766,-0.0012936,23:05.8
0.0037019,-2.05E-05,-0.0015981,-0.00066399,-0.0013535,23:05.8
0.0036686,-0.00014351,-0.0016169,-0.00075649,-0.0014255,23:05.8
0.0039585,-8.80E-05,-0.001578,-0.00084321,-0.0014776,23:05.8
0.004259,-4.50E-05,-0.0014649,-0.00092702,-0.001573,23:05.8
0.0044853,-6.36E-05,-0.0012968,-0.0010002,-0.001638,23:05.8
0.0046599,8.71E-06,-0.001144,-0.00099144,-0.0016302,23:05.8
0.0045743,2.52E-05,-0.0010108,-0.00096397,-0.0016079,23:05.8
0.0044273,0.00010112,-0.00085393,-0.00086211,-0.0015011,23:05.8
0.0045496,0.00050258,-0.00062919,-0.00063015,-0.0012665,23:05.8
0.0047424,0.00090519,-0.00040858,-0.00043019,-0.0010656,23:05.8
0.0048193,0.0010486,-0.00026486,-0.00035562,-0.00099491,23:05.8
0.0047517,0.00090398,-0.00020767,-0.00041306,-0.0010648,23:05.8
0.0045912,0.00049865,-0.00020784,-0.00062211,-0.0012815,23:05.8
0.004514,0.00011039,-0.00015351,-0.00086291,-0.0015101,23:05.8
0.0044652,-0.0001428,-5.30E-05,-0.0010047,-0.0016569,23:05.8
0.0043755,-0.00029261,3.84E-05,-0.0010769,-0.0017396,23:05.8
0.0042931,-0.00030548,0.0002034,-0.0010595,-0.0017117,23:05.8
0.0041231,-0.00023449,0.00041586,-0.00092938,-0.0015935,23:05.8
0.0038922,-0.00016022,0.00057457,-0.00080949,-0.0014816,23:05.8
0.0037687,-8.68E-05,0.00072854,-0.00072677,-0.0013864,23:05.8
0.0037514,-5.68E-06,0.00090222,-0.00065425,-0.0013284,23:05.8
0.0039082,7.01E-05,0.0010764,-0.00066189,-0.0013463,23:05.8
0.0042659,0.00014736,0.0012634,-0.00074171,-0.0014068,23:05.8
0.0045523,0.00019738,0.0014617,-0.00082948,-0.0014767,23:05.8
0.0047912,0.00026267,0.0016777,-0.00088678,-0.001518,23:05.8
0.0050424,0.00038909,0.0018581,-0.000893,-0.0014991,23:05.8
0.0049541,0.00040265,0.0019878,-0.00087276,-0.001458,23:05.8
0.0045598,0.00027843,0.0020954,-0.00083954,-0.0014182,23:05.8
0.0041981,0.00017726,0.0021604,-0.00079531,-0.0013683,23:05.8
0.0038925,7.48E-05,0.0022185,-0.00076956,-0.0013219,23:05.8
0.0037457,1.77E-05,0.002285,-0.00077494,-0.0013097,23:05.8
0.0038844,5.35E-05,0.0023415,-0.00081553,-0.001351,23:05.8
0.0041088,4.13E-05,0.0024255,-0.00089538,-0.0014248,23:05.8
0.0045099,0.00019078,0.0025943,-0.00092615,-0.0014456,23:05.8
0.0051617,0.00062775,0.0028232,-0.00085638,-0.0013784,23:05.8
0.0055901,0.00097842,0.0030105,-0.00075747,-0.001288,23:05.8
0.0055367,0.0010378,0.0031079,-0.00068776,-0.0012279,23:05.8
0.0048931,0.00062272,0.0030407,-0.0007556,-0.0012857,23:05.8
0.0039414,-7.71E-05,0.0028563,-0.00090847,-0.0014324,23:05.8
0.0034519,-0.00038642,0.0027978,-0.00094573,-0.00148,23:05.8
0.0034395,-0.00034839,0.0028669,-0.00093382,-0.0014504,23:05.9
0.0036326,-0.00025913,0.0029447,-0.00094868,-0.0014588,23:05.9
0.0040273,-0.00011292,0.0030464,-0.0009819,-0.0014963,23:05.9
0.0044071,-1.84E-05,0.003146,-0.0010581,-0.0015436,23:05.9
0.0046517,4.55E-05,0.0032206,-0.0010981,-0.0015831,23:05.9
0.0047404,9.76E-05,0.0032744,-0.001095,-0.0015986,23:05.9
0.0046623,0.00010797,0.0033085,-0.0010548,-0.0015573,23:05.9
0.0044489,0.00013191,0.003327,-0.00094686,-0.0014564,23:05.9
0.004144,0.00011597,0.0033075,-0.00085558,-0.0013623,23:05.9
0.0039794,0.00013248,0.0032865,-0.0007919,-0.0012871,23:05.9
0.0040487,0.00027336,0.0033029,-0.00073239,-0.0012214,23:05.9
0.004286,0.00041502,0.0033421,-0.00073472,-0.0012116,23:05.9
0.0046122,0.00048428,0.0033916,-0.00079181,-0.0012715,23:05.9
0.0048362,0.00047352,0.0034172,-0.00087977,-0.0013633,23:05.9
0.0049195,0.0003795,0.0034053,-0.00098388,-0.0014528,23:05.9
0.004845,0.0002381,0.0033678,-0.001038,-0.0015054,23:05.9
0.0045608,9.33E-05,0.0033062,-0.0010317,-0.0015008,23:05.9
0.0041803,4.34E-06,0.0032402,-0.00099148,-0.0014436,23:05.9
0.0038519,-1.97E-05,0.0031914,-0.00092255,-0.0013543,23:05.9
0.0036544,-1.44E-05,0.0031631,-0.00085303,-0.0012638,23:05.9
0.0036045,7.60E-05,0.0031577,-0.00081,-0.0012085,23:05.9
0.0038536,0.00028758,0.0031962,-0.00081184,-0.0011945,23:05.9
0.004431,0.00057693,0.0033141,-0.00079815,-0.0011543,23:05.9
0.0050587,0.00093959,0.003449,-0.0007367,-0.001088,23:05.9
0.0053685,0.0010931,0.0034469,-0.00075449,-0.0011092,23:05.9
0.0050376,0.00074443,0.0033007,-0.0008723,-0.0012289,23:05.9
0.004298,0.00018682,0.0030989,-0.00099689,-0.0013573,23:05.9
0.0036294,-0.00021734,0.0029041,-0.0010477,-0.0014036,23:05.9
0.0032154,-0.00033094,0.0028049,-0.00096789,-0.0013294,23:05.9
0.003082,-0.00023478,0.0027687,-0.00087143,-0.001229,23:05.9
0.0030907,-0.00017411,0.0027327,-0.00084731,-0.0011882,23:05.9
0.003233,-0.00013312,0.002722,-0.0008608,-0.0012147,23:05.9
0.0035993,-3.82E-05,0.0027371,-0.0009147,-0.0012795,23:05.9
0.0041613,0.00020348,0.0028156,-0.00093013,-0.0012877,23:05.9
0.0047685,0.00063334,0.002912,-0.00084289,-0.0012056,23:05.9
0.0050839,0.00093969,0.0029075,-0.00073991,-0.0011055,23:05.9
0.0049412,0.00091523,0.0027898,-0.00069885,-0.0010749,23:05.9
0.0043459,0.00057154,0.0025831,-0.00070955,-0.0011171,23:05.9
0.0035717,0.00010752,0.0023643,-0.00072101,-0.0011583,23:05.9
0.003145,-0.00013725,0.0022219,-0.00072338,-0.0011768,23:05.9
0.0030698,-0.00017142,0.0021719,-0.00071742,-0.0011754,23:05.9
0.0031562,-0.00019792,0.0021282,-0.00073508,-0.0012149,23:05.9
0.0034353,-0.00021007,0.0020442,-0.0008038,-0.0013162,23:05.9
0.003742,-0.0001082,0.0020384,-0.00085144,-0.0013668,23:05.9
0.0040109,5.59E-05,0.0020969,-0.00086344,-0.0013615,23:05.9
0.0042271,0.00018114,0.0021172,-0.00081626,-0.0013174,23:05.9
0.0041444,0.00026466,0.002102,-0.00070335,-0.001217,23:05.9
0.0038458,0.00029365,0.0020573,-0.00062246,-0.0011212,23:05.9
0.0035149,0.0002286,0.0019884,-0.00055235,-0.001046,23:05.9
0.0031199,7.29E-05,0.0018845,-0.00051902,-0.001017,23:05.9
0.002993,2.10E-06,0.0017845,-0.00054367,-0.0010388,23:06.0
0.0032531,9.46E-05,0.0017203,-0.0005515,-0.001057,23:06.0
0.0035124,0.00016992,0.0016851,-0.00061976,-0.0011027,23:06.0
0.0037562,0.00020569,0.0017067,-0.00072267,-0.0011712,23:06.0
0.003886,0.0001464,0.0016788,-0.00080241,-0.0012254,23:06.0
0.003847,0.00011378,0.0016297,-0.0008347,-0.0012093,23:06.0
0.0040291,0.00047468,0.0017199,-0.00069336,-0.0010368,23:06.0
0.0040668,0.00079394,0.0017821,-0.00053239,-0.00083849,23:06.0
0.0035659,0.00060914,0.0016927,-0.00052034,-0.00077315,23:06.0
0.002992,0.00025235,0.0015304,-0.00061933,-0.00084027,23:06.0
0.0026201,-8.40E-05,0.0013476,-0.00079123,-0.00096943,23:06.0
0.0025523,-0.00028879,0.0012495,-0.00090701,-0.0010517,23:06.0
0.0028197,-0.00024978,0.0012329,-0.00098285,-0.0011104,23:06.0
0.0031595,-0.00015815,0.0012119,-0.0010822,-0.0011639,23:06.0
0.0033831,-8.39E-05,0.0011887,-0.0011347,-0.0011659,23:06.0
0.0034447,2.05E-05,0.0011734,-0.0011353,-0.0011342,23:06.0
0.0033221,7.18E-05,0.0011288,-0.0010832,-0.0010503,23:06.0
0.0030678,0.00010024,0.0010317,-0.00099973,-0.00093021,23:06.0
0.0028796,0.00022286,0.00095728,-0.00088524,-0.00078584,23:06.0
0.0028103,0.00033932,0.00090578,-0.00078194,-0.00065393,23:06.0
0.0027591,0.00033528,0.00080626,-0.0008129,-0.00066124,23:06.0
0.0027653,0.00022334,0.00069199,-0.00092234,-0.00076706,23:06.0
0.0028751,8.55E-05,0.00057564,-0.0010361,-0.0008681,23:06.0
0.0030187,-8.34E-06,0.00045689,-0.0011528,-0.00097446,23:06.0
0.003037,-0.00014627,0.00033179,-0.0012419,-0.0010737,23:06.0
0.0028529,-0.00031085,0.00014291,-0.0012948,-0.0011216,23:06.0
0.0024475,-0.00049128,-7.72E-05,-0.0012949,-0.0011182,23:06.0
0.0019422,-0.00068624,-0.00025498,-0.0012518,-0.0010737,23:06.0
0.0016475,-0.00068757,-0.00037828,-0.0011653,-0.0009665,23:06.0
0.0015255,-0.0005968,-0.00048462,-0.0010753,-0.00086661,23:06.0
0.0016462,-0.0004557,-0.00056504,-0.0010307,-0.00081238,23:06.0
0.0022829,1.56E-05,-0.00052435,-0.00093872,-0.00070371,23:06.0
0.0029313,0.00047528,-0.0004839,-0.00087724,-0.00063898,23:06.0
0.0030682,0.00039985,-0.00062098,-0.00099868,-0.00075251,23:06.0
0.0028156,-3.70E-05,-0.00084938,-0.0011759,-0.00094122,23:06.0
0.0023077,-0.00051063,-0.0011145,-0.0013124,-0.0010912,23:06.0
0.001782,-0.00083028,-0.0013622,-0.0013672,-0.0011172,23:06.0
0.0014574,-0.00085688,-0.0015213,-0.0012609,-0.0010095,23:06.0
0.0012274,-0.0007611,-0.0016651,-0.0011148,-0.00087026,23:06.0
0.0010822,-0.00071393,-0.0017918,-0.0010498,-0.00077552,23:06.0
0.0011508,-0.00062302,-0.0018825,-0.0010231,-0.00073995,23:06.0
0.0014418,-0.00043985,-0.0019404,-0.0010157,-0.00072282,23:06.0
0.0018366,-0.00024788,-0.0019686,-0.0010419,-0.00073093,23:06.0
0.0021453,-0.00017116,-0.0020582,-0.0010987,-0.00078761,23:06.0
0.0022266,-0.00020329,-0.0021605,-0.0011524,-0.00082454,23:06.0
0.0020656,-0.00027034,-0.0022281,-0.001167,-0.00081814,23:06.0
0.0017478,-0.00039947,-0.0023627,-0.0011328,-0.00078817,23:06.0
0.0013366,-0.00051183,-0.0025081,-0.0010456,-0.00070776,23:06.0
0.00089286,-0.00057127,-0.0026141,-0.00095924,-0.00061856,23:06.0
0.00055532,-0.00068656,-0.0027449,-0.0009284,-0.00059259,23:06.0
0.00044974,-0.00076249,-0.0028443,-0.00093128,-0.00060382,23:06.1
0.0006155,-0.00071308,-0.0028955,-0.00096246,-0.00063112,23:06.1
0.00091888,-0.00065141,-0.0029521,-0.001013,-0.00068466,23:06.1
0.0011567,-0.00061956,-0.0030052,-0.0010558,-0.00074172,23:06.1
0.0012692,-0.00059622,-0.0030711,-0.0010921,-0.00077574,23:06.1
0.0012325,-0.00058375,-0.0031517,-0.0010531,-0.00074107,23:06.1
0.0010235,-0.00055835,-0.0032357,-0.00092893,-0.00063007,23:06.1
0.00071824,-0.00052437,-0.0033274,-0.00082015,-0.00052023,23:06.1
0.0004025,-0.00054942,-0.0034079,-0.00070253,-0.00044527,23:06.1
0.00016718,-0.00059419,-0.0034738,-0.00057213,-0.00039625,23:06.1
0.00010246,-0.00065096,-0.0035224,-0.00052252,-0.0004337,23:06.1
0.00017239,-0.00080133,-0.0035582,-0.00054141,-0.00056655,23:06.1
0.00032299,-0.00089099,-0.0035462,-0.00056568,-0.00070482,23:06.1
0.00051923,-0.00090836,-0.0034826,-0.00057273,-0.00082759,23:06.1
0.0006359,-0.00096521,-0.0034486,-0.00054019,-0.00089168,23:06.1
0.00058846,-0.00091651,-0.0034051,-0.0004382,-0.00084421,23:06.1
0.00041378,-0.0008148,-0.0033405,-0.00029465,-0.00075579,23:06.1
0.00018105,-0.00070759,-0.0033352,-0.00013049,-0.00062145,23:06.1
-2.32E-05,-0.0005089,-0.0033487,5.92E-05,-0.00042061,23:06.1
-0.00013674,-0.00034266,-0.0033751,0.00020204,-0.00025472,23:06.1
-0.00019957,-0.00025448,-0.0034595,0.00023949,-0.00017188,23:06.1
-0.00017737,-0.00015649,-0.0035241,0.00016367,-0.00011894,23:06.1
-3.82E-05,-2.26E-06,-0.0035362,2.37E-05,-6.06E-05,23:06.1
0.00015005,0.0001822,-0.0035308,-0.00012984,-9.68E-06,23:06.1
0.00042347,0.00050604,-0.0034486,-0.00031329,0.00011797,23:06.1
0.00060433,0.00096878,-0.0033136,-0.00044092,0.00034934,23:06.1
0.00049274,0.0011625,-0.0032254,-0.00050644,0.00053872,23:06.1
0.00016795,0.0010502,-0.0031986,-0.00062266,0.00064729,23:06.1
-0.00028919,0.00088461,-0.0031778,-0.00072118,0.0006822,23:06.1
-0.00060718,0.0006226,-0.0030797,-0.0007839,0.00062917,23:06.1
-0.00063782,0.00033386,-0.0029915,-0.00087081,0.00054477,23:06.1
-0.00042919,0.0002468,-0.0029415,-0.00093963,0.00047121,23:06.1
4.67E-06,0.00029166,-0.002816,-0.00096822,0.00040937,23:06.1
0.00030788,0.00016132,-0.0027545,-0.00092399,0.00033051,23:06.1
0.00029873,-8.67E-05,-0.0028665,-0.00079346,0.00027123,23:06.1
0.00013224,-0.00019526,-0.0030516,-0.00056022,0.00030219,23:06.1
-0.00026634,-0.00033254,-0.0032241,-0.00027173,0.00034587,23:06.1
-0.00083553,-0.00062405,-0.0033169,-0.00010651,0.00030011,23:06.1
-0.0012939,-0.00085978,-0.0033528,-1.72E-05,0.00022653,23:06.1
-0.0015355,-0.00094889,-0.0033586,9.47E-05,0.00018938,23:06.1
-0.0014771,-0.00092503,-0.0033126,0.00014897,0.00011963,23:06.1
-0.0011679,-0.00084916,-0.0032535,0.00016617,1.00E-05,23:06.1
-0.00088473,-0.0007969,-0.0032027,0.00015928,-8.37E-05,23:06.1
-0.00063838,-0.00073912,-0.0031592,0.00010803,-0.00016196,23:06.1
-0.00040198,-0.00065648,-0.0031224,0.00010133,-0.00018804,23:06.1
-0.00040752,-0.00060273,-0.0030816,0.00015108,-0.00014974,23:06.1
-0.00055599,-0.00052383,-0.0030376,0.00021691,-6.89E-05,23:06.1
-0.00063282,-0.00034527,-0.0029978,0.00033608,7.57E-05,23:06.1
-0.00079113,-0.00022152,-0.0029673,0.00045052,0.00021267,23:06.1
-0.0010068,-0.00030169,-0.0029191,0.0004377,0.0002289,23:06.1
-0.0011285,-0.00051224,-0.0028815,0.00031323,0.00013397,23:06.2
-0.0011951,-0.00072948,-0.0028281,0.00014283,-7.41E-06,23:06.2
-0.0010564,-0.00080612,-0.0026756,-7.50E-06,-0.00012307,23:06.2
-0.00073117,-0.00072277,-0.0025166,-7.47E-05,-0.00016427,23:06.2
-0.0005758,-0.00065583,-0.0023726,-9.78E-05,-0.00016394,23:06.2
-0.00065048,-0.00064683,-0.0021926,-9.29E-05,-0.00013375,23:06.2
-0.00086808,-0.00063368,-0.0020449,-1.12E-05,-4.50E-05,23:06.2
-0.0011617,-0.00061095,-0.0019575,0.000101,7.26E-05,23:06.2
-0.0013649,-0.00057605,-0.0018828,0.00018563,0.00016727,23:06.2
-0.0014555,-0.00055713,-0.0017942,0.00022907,0.00021454,23:06.2
-0.0014208,-0.00055353,-0.0017211,0.00020852,0.0002047,23:06.2
-0.0012245,-0.00055858,-0.0016483,0.00014133,0.0001291,23:06.2
-0.0009994,-0.00058404,-0.0015544,6.34E-05,3.12E-05,23:06.2
-0.00078901,-0.00055863,-0.0014516,2.24E-05,-1.37E-05,23:06.2
-0.0006662,-0.00050628,-0.0013746,2.91E-05,-2.21E-05,23:06.2
-0.00075152,-0.00048681,-0.0013358,9.12E-05,1.32E-05,23:06.2
-0.00091158,-0.00042442,-0.0012471,0.0002609,0.00014942,23:06.2
0.059816,0.00059916,-0.029028,-0.019914,-0.019529,23:06.2
0.087128,0.00079844,-0.040453,-0.028893,-0.028485,23:06.2
0.065474,0.00050309,-0.03137,-0.021686,-0.021474,23:06.2
0.078845,0.00040959,-0.036982,-0.026171,-0.026005,23:06.2
0.073382,0.00030583,-0.034509,-0.024314,-0.024253,23:06.2
0.073599,0.00043036,-0.034253,-0.024205,-0.024246,23:06.2
0.077447,0.0006462,-0.035483,-0.025274,-0.025391,23:06.2
0.073418,0.00067736,-0.03354,-0.023801,-0.024027,23:06.2
0.076656,0.0006265,-0.034845,-0.024827,-0.02513,23:06.2
0.07472,0.00059452,-0.034025,-0.024129,-0.024509,23:06.2
0.074756,0.00070539,-0.033938,-0.023992,-0.024447,23:06.2
0.075595,0.00086278,-0.03414,-0.024081,-0.024616,23:06.2
0.074311,0.00091863,-0.033457,-0.023534,-0.024167,23:06.2
0.075463,0.00084024,-0.033787,-0.023888,-0.024603,23:06.2
0.074913,0.00072012,-0.033398,-0.023731,-0.024515,23:06.2
0.075222,0.00059948,-0.033358,-0.023871,-0.024731,23:06.2
0.075528,0.00041594,-0.033353,-0.024008,-0.024929,23:06.2
0.075202,0.00033666,-0.033112,-0.023886,-0.024859,23:06.2
0.075544,0.00038829,-0.03313,-0.023912,-0.024951,23:06.2
0.075131,0.00042289,-0.032877,-0.023674,-0.02478,23:06.2
0.074976,0.00047987,-0.032787,-0.023523,-0.02469,23:06.2
0.074872,0.00055117,-0.032649,-0.023385,-0.024605,23:06.2
0.074762,0.00060415,-0.032432,-0.023263,-0.024529,23:06.2
0.074998,0.00066227,-0.032339,-0.023269,-0.024583,23:06.2
0.075201,0.00070509,-0.032163,-0.023277,-0.024628,23:06.2
0.075579,0.00073951,-0.032022,-0.023351,-0.024725,23:06.2
0.075829,0.00077316,-0.031896,-0.023387,-0.024784,23:06.2
0.07593,0.00079279,-0.031756,-0.023393,-0.024815,23:06.2
0.07592,0.00077558,-0.031657,-0.023376,-0.024822,23:06.2
0.075671,0.00073764,-0.031572,-0.023294,-0.024745,23:06.2
0.075453,0.00074689,-0.0315,-0.023226,-0.024667,23:06.2
0.075323,0.00076801,-0.031435,-0.023176,-0.024608,23:06.2
0.075289,0.00078559,-0.031366,-0.02317,-0.024588,23:06.3
0.075463,0.0008303,-0.031286,-0.023244,-0.024634,23:06.3
0.075802,0.00084851,-0.031213,-0.023369,-0.024723,23:06.3
0.076144,0.00089727,-0.031133,-0.023494,-0.024806,23:06.3
0.07644,0.00099359,-0.031042,-0.023586,-0.024865,23:06.3
0.076665,0.0010315,-0.030972,-0.023653,-0.0249,23:06.3
0.076631,0.0010168,-0.030917,-0.023685,-0.02489,23:06.3
0.076381,0.00096158,-0.030885,-0.023693,-0.024845,23:06.3
0.076137,0.00088602,-0.030877,-0.023708,-0.024798,23:06.3
0.075936,0.00084757,-0.030861,-0.023727,-0.024766,23:06.3
0.075915,0.00086067,-0.030813,-0.023773,-0.024762,23:06.3
0.076117,0.00087577,-0.03076,-0.02388,-0.02481,23:06.3
0.076388,0.00090013,-0.030697,-0.024021,-0.024899,23:06.3
0.076727,0.00096104,-0.030605,-0.024152,-0.024984,23:06.3
0.076993,0.00094938,-0.030557,-0.024279,-0.025072,23:06.3
0.077252,0.0011166,-0.030462,-0.024293,-0.025045,23:06.3
0.077668,0.0016211,-0.030254,-0.024146,-0.024847,23:06.3
0.077715,0.0018616,-0.030134,-0.024047,-0.024702,23:06.3
0.077214,0.0015979,-0.030154,-0.024087,-0.024699,23:06.3
0.076626,0.001139,-0.030247,-0.024253,-0.024813,23:06.3
0.076192,0.00068887,-0.030352,-0.024474,-0.024981,23:06.3
0.076152,0.0005141,-0.030358,-0.02458,-0.025061,23:06.3
0.076563,0.00066289,-0.03027,-0.024637,-0.025099,23:06.3
0.077047,0.00083344,-0.030166,-0.024736,-0.025155,23:06.3
0.077354,0.00091009,-0.030089,-0.02481,-0.02519,23:06.3
0.07751,0.0009698,-0.030031,-0.024862,-0.025211,23:06.3
0.077519,0.0010104,-0.029959,-0.024859,-0.025183,23:06.3
0.077369,0.0010616,-0.02988,-0.024781,-0.025084,23:06.3
0.077198,0.0011385,-0.029818,-0.024707,-0.024983,23:06.3
0.077128,0.0011911,-0.029767,-0.024666,-0.024918,23:06.3
0.07712,0.0012054,-0.029716,-0.024673,-0.024908,23:06.3
0.077189,0.0011352,-0.029674,-0.024773,-0.024984,23:06.3
0.077405,0.0010375,-0.029618,-0.024916,-0.025116,23:06.3
0.077624,0.00097229,-0.029532,-0.025044,-0.025239,23:06.3
0.077775,0.00091482,-0.029451,-0.025158,-0.025336,23:06.3
0.077909,0.00091608,-0.029348,-0.025197,-0.025368,23:06.3
0.077859,0.0009286,-0.02923,-0.025171,-0.025326,23:06.3
0.077666,0.00093412,-0.029146,-0.025129,-0.025266,23:06.3
0.077463,0.00092051,-0.029064,-0.025073,-0.025204,23:06.3
0.077337,0.00094814,-0.028948,-0.025017,-0.025141,23:06.3
0.077597,0.0012246,-0.028745,-0.024914,-0.025051,23:06.3
0.078054,0.0015051,-0.028516,-0.024866,-0.024993,23:06.3
0.078322,0.0015365,-0.028374,-0.024938,-0.025086,23:06.3
0.078357,0.0013045,-0.028297,-0.025109,-0.025287,23:06.3
0.078181,0.00085351,-0.028269,-0.025318,-0.025481,23:06.3
0.078041,0.00061348,-0.028204,-0.02537,-0.025581,23:06.3
0.077998,0.00065735,-0.028058,-0.025365,-0.02555,23:06.3
0.07791,0.00073704,-0.027901,-0.025247,-0.025442,23:06.3
0.077787,0.00080995,-0.027752,-0.025136,-0.025337,23:06.3
0.077705,0.00085131,-0.027604,-0.025187,-0.025283,23:06.3
0.077779,0.00091368,-0.027462,-0.025019,-0.025279,23:06.4
0.077929,0.00090557,-0.027383,-0.025307,-0.025325,23:06.4
0.078367,0.0010649,-0.027268,-0.025765,-0.025349,23:06.4
0.079167,0.0015505,-0.027035,-0.025295,-0.025296,23:06.4
0.079556,0.0017131,-0.026911,-0.025076,-0.025315,23:06.4
0.079336,0.0014239,-0.02696,-0.025359,-0.025438,23:06.4
0.078937,0.0010177,-0.027039,-0.025393,-0.025551,23:06.4
0.078431,0.00061115,-0.027096,-0.025505,-0.025629,23:06.4
0.078083,0.00048996,-0.027092,-0.025501,-0.025604,23:06.4
0.078162,0.0006808,-0.027012,-0.025377,-0.025495,23:06.4
0.078374,0.00085067,-0.026934,-0.025394,-0.025454,23:06.4
0.078627,0.0009441,-0.02691,-0.025413,-0.02549,23:06.4
0.079096,0.0010977,-0.026875,-0.025484,-0.025543,23:06.4
0.079457,0.001143,-0.026831,-0.025594,-0.025632,23:06.4
0.079494,0.00096989,-0.026847,-0.025712,-0.025762,23:06.4
0.079366,0.0007291,-0.026917,-0.02584,-0.025875,23:06.4
0.079075,0.00048683,-0.027,-0.02591,-0.025929,23:06.4
0.078795,0.00037489,-0.027037,-0.025912,-0.025918,23:06.4
0.078657,0.00039266,-0.027027,-0.025861,-0.02586,23:06.4
0.078617,0.0004526,-0.026997,-0.02581,-0.0258,23:06.4
0.078802,0.00060083,-0.026935,-0.025798,-0.025775,23:06.4
0.079098,0.00068771,-0.026887,-0.025836,-0.025812,23:06.4
0.079324,0.00065288,-0.026893,-0.025939,-0.025937,23:06.4
0.079531,0.00058003,-0.026925,-0.026071,-0.02609,23:06.4
0.079668,0.00046178,-0.026969,-0.026179,-0.026194,23:06.4
0.079704,0.00040353,-0.026998,-0.02623,-0.026236,23:06.4
0.079678,0.00043444,-0.026993,-0.026198,-0.026207,23:06.4
0.079556,0.00045456,-0.026992,-0.026123,-0.026147,23:06.4
0.079391,0.00045732,-0.027011,-0.026078,-0.026107,23:06.4
0.079322,0.00046132,-0.027028,-0.026064,-0.026091,23:06.4
0.079407,0.00046654,-0.027049,-0.02609,-0.026119,23:06.4
0.079625,0.00047094,-0.027079,-0.026162,-0.0262,23:06.4
0.079932,0.00046921,-0.027097,-0.026261,-0.026312,23:06.4
0.080247,0.00045377,-0.027115,-0.026362,-0.026423,23:06.4
0.080471,0.00044088,-0.027141,-0.026434,-0.026499,23:06.4
0.080554,0.00043977,-0.027165,-0.026472,-0.026538,23:06.4
0.080532,0.00043902,-0.027166,-0.026452,-0.026524,23:06.4
0.080422,0.00045583,-0.027166,-0.026381,-0.026461,23:06.4
0.080247,0.00045736,-0.027192,-0.026336,-0.026423,23:06.4
0.080168,0.00043906,-0.027216,-0.026322,-0.026415,23:06.4
0.080209,0.00040486,-0.027243,-0.026365,-0.026449,23:06.4
0.080414,0.0004117,-0.027265,-0.02645,-0.026526,23:06.4
0.081001,0.00072985,-0.027174,-0.02643,-0.0265,23:06.4
0.081621,0.0011912,-0.026993,-0.026337,-0.0264,23:06.4
0.081813,0.0013378,-0.026881,-0.02631,-0.026376,23:06.4
0.0816,0.001142,-0.026913,-0.026371,-0.026448,23:06.4
0.08089,0.00058892,-0.027055,-0.026496,-0.0266,23:06.4
0.080025,-4.46E-06,-0.027157,-0.02656,-0.02667,23:06.4
0.079579,-0.00016684,-0.027145,-0.026489,-0.026599,23:06.4
0.079368,-0.00016391,-0.027101,-0.026397,-0.026545,23:06.4
0.079346,-0.00010593,-0.027036,-0.026342,-0.026502,23:06.5
0.079543,6.16E-05,-0.026954,-0.026313,-0.026458,23:06.5
0.079673,0.00012061,-0.026882,-0.026307,-0.026456,23:06.5
0.079928,0.00027315,-0.026789,-0.026268,-0.026437,23:06.5
0.080195,0.00052613,-0.026688,-0.026177,-0.026363,23:06.5
0.080044,0.00058214,-0.026609,-0.026072,-0.026272,23:06.5
0.079658,0.0004951,-0.026558,-0.025971,-0.026206,23:06.5
0.078954,0.0002424,-0.026532,-0.025874,-0.026144,23:06.5
0.078075,-2.90E-05,-0.026484,-0.025748,-0.026033,23:06.5
0.077576,-6.89E-06,-0.026323,-0.025521,-0.025828,23:06.5
0.077183,0.00014234,-0.026066,-0.025257,-0.025582,23:06.5
0.0767,0.00019005,-0.025854,-0.025073,-0.02541,23:06.5
0.076301,0.00014977,-0.025682,-0.024965,-0.02532,23:06.5
0.075935,0.00010261,-0.025457,-0.024866,-0.025233,23:06.5
0.075339,9.90E-05,-0.025185,-0.024672,-0.025041,23:06.5
0.074386,0.00010545,-0.02485,-0.02436,-0.024731,23:06.5
0.073422,0.00011356,-0.024451,-0.023975,-0.024355,23:06.5
0.072396,0.00015482,-0.02406,-0.023563,-0.023941,23:06.5
0.071184,0.00022461,-0.02365,-0.02314,-0.023523,23:06.5
0.070138,0.00026935,-0.023222,-0.022732,-0.023127,23:06.5
0.06919,0.00027353,-0.022886,-0.022442,-0.022832,23:06.5
0.0682,0.00021157,-0.022582,-0.022228,-0.022618,23:06.5
0.067366,0.00010819,-0.022236,-0.021997,-0.022364,23:06.5
0.066512,8.80E-05,-0.021863,-0.021743,-0.022095,23:06.5
0.06554,0.00012548,-0.021487,-0.021443,-0.021788,23:06.5
0.064634,0.00014794,-0.02109,-0.02107,-0.021385,23:06.5
0.063431,0.00010505,-0.020673,-0.020636,-0.02099,23:06.5
0.061977,9.40E-05,-0.020306,-0.020225,-0.020514,23:06.5
0.060804,0.00034032,-0.019855,-0.019744,-0.01991,23:06.5
0.059733,0.00060435,-0.019306,-0.019172,-0.01944,23:06.5
0.058409,0.00054063,-0.018886,-0.01877,-0.019109,23:06.5
0.056979,0.000296,-0.018545,-0.018489,-0.018784,23:06.5
0.055768,8.41E-05,-0.018158,-0.018173,-0.018472,23:06.5
0.054616,-4.29E-05,-0.017745,-0.017871,-0.018163,23:06.5
0.053205,-6.61E-05,-0.017321,-0.017415,-0.0177,23:06.5
0.051477,-0.00011351,-0.016864,-0.016854,-0.017115,23:06.5
0.049646,-0.00021788,-0.016342,-0.016393,-0.016633,23:06.5
0.047786,-0.00020301,-0.015786,-0.015833,-0.016066,23:06.5
0.045857,-4.89E-05,-0.015167,-0.015103,-0.015318,23:06.5
0.044242,0.00025277,-0.014372,-0.014289,-0.014494,23:06.5
0.04257,0.00056177,-0.013565,-0.013477,-0.013664,23:06.5
0.040268,0.0005931,-0.01279,-0.012717,-0.012912,23:06.5
0.037704,0.00035802,-0.011982,-0.012021,-0.012187,23:06.5
0.034905,-4.26E-05,-0.011329,-0.011432,-0.011579,23:06.5
0.031897,-0.00033484,-0.010604,-0.010736,-0.010888,23:06.5
0.029156,-0.00035149,-0.009662,-0.0098369,-0.0099336,23:06.5
0.026354,-0.0003064,-0.0087382,-0.0088376,-0.0089499,23:06.5
0.023387,-0.0002447,-0.0078558,-0.0079443,-0.0079747,23:06.5
0.020927,-0.00022386,-0.0069798,-0.0070113,-0.0070272,23:06.5
0.018511,-0.00028082,-0.0061016,-0.0060926,-0.0061288,23:06.5
0.015918,-0.00024624,-0.0053473,-0.00546,-0.0053696,23:06.6
0.013855,-3.30E-05,-0.0045771,-0.0046309,-0.0046623,23:06.6
0.012311,0.0004135,-0.0036281,-0.0039295,-0.0037804,23:06.6
0.010607,0.00072344,-0.0027943,-0.0031276,-0.0030102,23:06.6
0.0083477,0.00050048,-0.0021588,-0.0024628,-0.0024434,23:06.6
0.00617,8.65E-05,-0.0016102,-0.0023041,-0.0018995,23:06.6
0.0039861,-0.00034969,-0.0011203,-0.0012029,-0.0014308,23:06.6
0.001607,-0.00072358,-0.00067095,-0.0016192,-0.00089061,23:06.6
-0.00010433,-0.00065281,-0.00014555,-0.0026779,-0.00023083,23:06.6
-0.0013956,-0.000397,0.00046495,-0.0004832,0.00029396,23:06.6
-0.0026721,-0.000287,0.00098808,0.00085987,0.00071977,23:06.6
-0.0037153,-0.00017619,0.0014597,0.00061869,0.0011519,23:06.6
-0.0045301,-5.40E-05,0.0019419,0.0013649,0.0015418,23:06.6
-0.0053146,2.02E-05,0.0023884,0.0015886,0.0018915,23:06.6
-0.006342,-9.49E-06,0.0027379,0.0018247,0.002205,23:06.6
-0.0074937,-0.00010302,0.003044,0.0022857,0.0025303,23:06.6
-0.0086021,-0.00015533,0.0034067,0.0024278,0.0028503,23:06.6
-0.0096297,-0.0001444,0.0037489,0.002817,0.0031728,23:06.6
-0.010559,-7.99E-05,0.0040682,0.0031168,0.003532,23:06.6
-0.01136,-0.00014028,0.004357,0.0033424,0.0037872,23:06.6
-0.011951,-0.00022507,0.0045837,0.0035487,0.0039595,23:06.6
-0.012519,-0.00020111,0.0048492,0.0036741,0.0041501,23:06.6
-0.013004,-0.00017034,0.0051327,0.0038607,0.0043278,23:06.6
-0.0131,0.00018195,0.005435,0.0040625,0.0045701,23:06.6
-0.013236,0.00064819,0.0057821,0.0043404,0.0048823,23:06.6
-0.013926,0.00058951,0.0060198,0.0045385,0.0050955,23:06.6
-0.015027,0.00019148,0.0061294,0.0046133,0.0052005,23:06.6
-0.016187,-0.00023073,0.0062064,0.0047052,0.005301,23:06.6
-0.01706,-0.00056387,0.006299,0.0047905,0.0054025,23:06.6
-0.017652,-0.00071156,0.0064368,0.0048899,0.0054973,23:06.6
-0.018076,-0.00072978,0.006569,0.0049812,0.0056192,23:06.6
-0.018264,-0.00065442,0.0067353,0.0050621,0.0057496,23:06.6
-0.018237,-0.00043233,0.0069913,0.0051949,0.0058685,23:06.6
-0.018097,-3.07E-05,0.0072834,0.0053958,0.0060611,23:06.6
-0.018094,0.00032696,0.0075573,0.0056175,0.0063026,23:06.6
-0.018378,0.00038868,0.0077223,0.0057585,0.0064545,23:06.6
-0.019062,0.00012547,0.0077593,0.0058079,0.0065216,23:06.6
-0.019984,-0.0002758,0.0077472,0.005833,0.0065685,23:06.6
-0.020698,-0.00056512,0.0077457,0.0058725,0.006615,23:06.6
-0.021143,-0.00069951,0.0077953,0.005925,0.0066726,23:06.6
-0.021185,-0.00054387,0.0079269,0.0060165,0.0067821,23:06.6
-0.020898,-0.00017703,0.0081108,0.006142,0.0069209,23:06.6
-0.020814,-7.90E-05,0.0082281,0.0061946,0.006976,23:06.6
-0.020994,-0.00020784,0.0082578,0.0061732,0.0069586,23:06.6
-0.021222,-0.00024013,0.0083163,0.0062005,0.0069931,23:06.6
-0.021551,-0.00028274,0.0083944,0.0062906,0.0070845,23:06.6
-0.022013,-0.00039385,0.0084306,0.0063779,0.0071642,23:06.6
-0.022349,-0.00035935,0.0085072,0.0064954,0.0072842,23:06.6
-0.022539,-0.00025153,0.0086189,0.0066377,0.0074307,23:06.6
-0.022771,-0.00028014,0.0086742,0.0066964,0.0074892,23:06.7
-0.022899,-0.000356,0.0086952,0.0066754,0.0074782,23:06.7
-0.022907,-0.00042794,0.008724,0.0066459,0.0074392,23:06.7
-0.022899,-0.00048866,0.0087784,0.0066244,0.0073989,23:06.7
-0.022874,-0.00049302,0.0088264,0.0066081,0.007384,23:06.7
-0.022957,-0.00049769,0.0088695,0.0066318,0.0074,23:06.7
-0.023032,-0.00037885,0.0089811,0.0067417,0.0075049,23:06.7
-0.023056,-0.00014184,0.0091187,0.0069083,0.0076828,23:06.7
-0.023244,-4.13E-05,0.0091917,0.0070531,0.0078235,23:06.7
-0.023436,-4.82E-05,0.0092003,0.0071064,0.007882,23:06.7
-0.023625,-0.00017035,0.0091656,0.0070712,0.0078606,23:06.7
-0.023898,-0.00043914,0.0090949,0.0069968,0.007759,23:06.7
-0.023966,-0.00061663,0.0090405,0.0069049,0.0076404,23:06.7
-0.023872,-0.00067475,0.0090448,0.0068586,0.007591,23:06.7
-0.023797,-0.00065009,0.0090867,0.0068825,0.0075953,23:06.7
-0.023764,-0.00058161,0.0091246,0.0069169,0.0076146,23:06.7
-0.02385,-0.00057627,0.0091648,0.006994,0.0076864,23:06.7
-0.023806,-0.00032005,0.0092891,0.0071866,0.0078599,23:06.7
-0.023489,0.00022511,0.0094567,0.0074518,0.008102,23:06.7
-0.023243,0.0006182,0.0095664,0.0076621,0.0082956,23:06.7
-0.023245,0.00069804,0.0096094,0.0077047,0.0083293,23:06.7
-0.02361,0.00027343,0.0094856,0.0075279,0.0081444,23:06.7
-0.024191,-0.00047874,0.0092467,0.0072371,0.0078479,23:06.7
-0.024495,-0.00095799,0.0091156,0.0070452,0.0076343,23:06.7
-0.024595,-0.0011798,0.0090583,0.0069669,0.0075125,23:06.7
-0.024661,-0.0012451,0.0090579,0.0069786,0.0074973,23:06.7
-0.024592,-0.0010594,0.0091622,0.0071196,0.0076247,23:06.7
-0.024575,-0.00084442,0.0092377,0.007263,0.0077448,23:06.7
-0.02464,-0.00070486,0.00927,0.0073669,0.007828,23:06.7
-0.024672,-0.00060989,0.0093046,0.0074621,0.0079259,23:06.7
-0.024648,-0.00056191,0.0093064,0.0074889,0.0079602,23:06.7
-0.02447,-0.00049047,0.0092986,0.0074757,0.007931,23:06.7
-0.024202,-0.00041522,0.0093104,0.0074752,0.0079118,23:06.7
-0.023812,-0.00020822,0.0093736,0.0075089,0.0079361,23:06.7
-0.023333,0.0001251,0.0094438,0.0075549,0.0079781,23:06.7
-0.023216,0.00019374,0.0094379,0.0075628,0.0079793,23:06.7
-0.023538,-5.49E-05,0.0093667,0.007527,0.0079254,23:06.7
-0.024111,-0.00047896,0.0092206,0.0074335,0.0078228,23:06.7
-0.024687,-0.00089557,0.009066,0.0073437,0.0077365,23:06.7
-0.024825,-0.00096557,0.0090301,0.0073461,0.0077485,23:06.7
-0.024652,-0.00082768,0.0090512,0.0073723,0.0077871,23:06.7
-0.024459,-0.00075285,0.009043,0.0073573,0.0077711,23:06.7
-0.024153,-0.00065302,0.0090413,0.0073268,0.007729,23:06.7
-0.023839,-0.0005648,0.0090462,0.0072809,0.0076756,23:06.7
-0.023658,-0.00053092,0.0090399,0.0072315,0.0076315,23:06.7
-0.023555,-0.00047088,0.0090402,0.0072161,0.0076267,23:06.7
-0.023562,-0.00047349,0.0090226,0.0072339,0.0076456,23:06.7
-0.023662,-0.00047072,0.0089971,0.0072815,0.0076951,23:06.7
-0.023613,-0.00026996,0.0090261,0.0073829,0.0078057,23:06.7
-0.023359,2.51E-05,0.009079,0.007502,0.0079323,23:06.7
-0.023187,0.00017206,0.0090617,0.0075273,0.007962,23:06.7
-0.02325,-2.96E-05,0.0089285,0.0073988,0.0078261,23:06.8
-0.023375,-0.00042575,0.0087543,0.0071997,0.0076096,23:06.8
-0.023441,-0.00071004,0.0086262,0.0070416,0.0074345,23:06.8
-0.023449,-0.00087602,0.0085385,0.0069368,0.007316,23:06.8
-0.023316,-0.00086934,0.0085244,0.0069236,0.0073,23:06.8
-0.023199,-0.00072061,0.0085608,0.0069938,0.0073789,23:06.8
-0.023189,-0.00056617,0.0085711,0.0070592,0.0074511,23:06.8
-0.023109,-0.00038318,0.0085853,0.0071465,0.0075305,23:06.8
-0.023042,-0.0002664,0.0085847,0.0072194,0.0075954,23:06.8
-0.023009,-0.00028111,0.0085268,0.0071915,0.0075638,23:06.8
-0.02291,-0.00038283,0.0084359,0.0070995,0.007463,23:06.8
-0.022769,-0.00049942,0.0083489,0.0069796,0.0073479,23:06.8
-0.022548,-0.00052669,0.0082919,0.0068748,0.0072496,23:06.8
-0.022321,-0.00050441,0.0082438,0.0068189,0.0071959,23:06.8
-0.022198,-0.00046221,0.0082107,0.0068082,0.0071892,23:06.8
-0.022191,-0.0004197,0.0081885,0.0068389,0.0072,23:06.8
-0.022314,-0.00044279,0.0081413,0.0068786,0.0072216,23:06.8
-0.022433,-0.00046045,0.0080932,0.00692,0.0072559,23:06.8
-0.022425,-0.00044719,0.0080459,0.0069391,0.0072568,23:06.8
-0.022326,-0.00044866,0.0079879,0.0069028,0.0072179,23:06.8
-0.02209,-0.00041143,0.0079433,0.0068565,0.0071753,23:06.8
-0.021705,-0.00030944,0.0079154,0.0068098,0.0071213,23:06.8
-0.021257,-0.00015673,0.0079117,0.0067575,0.007071,23:06.8
-0.02099,-0.00010162,0.0078876,0.0067007,0.0070215,23:06.8
-0.021058,-0.00026737,0.0077934,0.0066186,0.0069374,23:06.8
-0.021169,-0.0004455,0.007704,0.0065815,0.0068789,23:06.8
-0.021314,-0.0005781,0.0076288,0.0065777,0.0068569,23:06.8
-0.021447,-0.00061492,0.0075723,0.0065918,0.0068687,23:06.8
-0.021337,-0.00051937,0.0075563,0.0066347,0.0069006,23:06.8
-0.021249,-0.00056292,0.0074822,0.0065784,0.006837,23:06.8
-0.020779,-0.00030329,0.0075041,0.0065822,0.0068366,23:06.8
-0.019737,0.00042399,0.007684,0.0067159,0.0069727,23:06.8
-0.019134,0.00074122,0.007723,0.0067071,0.0069757,23:06.8
-0.019147,0.00053306,0.0076069,0.0065836,0.0068377,23:06.8
-0.019465,4.88E-05,0.0074054,0.0063806,0.0066276,23:06.8
-0.020019,-0.0005713,0.0071562,0.0061563,0.006405,23:06.8
-0.020405,-0.00089271,0.0070151,0.0060923,0.0063197,23:06.8
-0.020581,-0.0010263,0.006907,0.0060585,0.0062841,23:06.8
-0.02067,-0.0011626,0.0067946,0.005988,0.0062315,23:06.8
-0.020481,-0.0010996,0.0067575,0.0059406,0.006208,23:06.8
-0.020084,-0.00094191,0.0067083,0.005867,0.0061641,23:06.8
-0.019695,-0.00086049,0.0066504,0.0057768,0.0060934,23:06.8
-0.019309,-0.00076448,0.0066384,0.0056894,0.0060203,23:06.8
-0.018959,-0.00064225,0.0066061,0.0056258,0.0059772,23:06.8
-0.018772,-0.00056991,0.006555,0.0056018,0.0059782,23:06.8
-0.018727,-0.00052808,0.0065178,0.0055838,0.0059823,23:06.8
-0.018749,-0.00050007,0.0064737,0.005583,0.006007,23:06.8
-0.018782,-0.00048905,0.0064189,0.005595,0.0060353,23:06.8
-0.018713,-0.00047581,0.0063591,0.0055609,0.0060206,23:06.8
-0.018535,-0.00046878,0.0062966,0.005487,0.0059873,23:06.8
-0.018304,-0.00046191,0.00623,0.0053939,0.005914,23:06.9
-0.017985,-0.00044324,0.0061688,0.0052665,0.0057988,23:06.9
-0.017654,-0.00043578,0.0061217,0.0051485,0.0056988,23:06.9
-0.017435,-0.00043069,0.0060807,0.0050635,0.0056223,23:06.9
-0.017287,-0.00040694,0.0060574,0.0049966,0.0055785,23:06.9
-0.017235,-0.0003902,0.0060457,0.0049701,0.0055746,23:06.9
-0.017295,-0.00039251,0.0060208,0.0049674,0.0055842,23:06.9
-0.017305,-0.00040908,0.005986,0.0049477,0.00558,23:06.9
-0.017235,-0.0004346,0.0059414,0.0048984,0.0055483,23:06.9
-0.017104,-0.00043581,0.0058956,0.0048245,0.0054954,23:06.9
-0.01684,-0.00041674,0.0058531,0.0047242,0.0054075,23:06.9
-0.016489,-0.00040685,0.0058064,0.0046059,0.0052896,23:06.9
-0.016168,-0.00039601,0.0057801,0.0045013,0.005195,23:06.9
-0.015926,-0.00038175,0.0057584,0.0044048,0.0051266,23:06.9
-0.015749,-0.00036357,0.0057294,0.004366,0.0050817,23:06.9
-0.015637,-0.00030921,0.0057385,0.0044345,0.0050838,23:06.9
-0.015587,-0.00023645,0.0057463,0.0045117,0.0050903,23:06.9
-0.015563,-0.00022963,0.0057165,0.0045582,0.0050564,23:06.9
-0.015575,-0.00035183,0.0056674,0.0045811,0.0049646,23:06.9
-0.015575,-0.00057557,0.0055707,0.0045149,0.0048009,23:06.9
-0.015423,-0.00074495,0.0054732,0.0044254,0.004631,23:06.9
-0.015128,-0.00076966,0.0054262,0.0043954,0.0045053,23:06.9
-0.014735,-0.00067377,0.005405,0.0043462,0.0044077,23:06.9
-0.014266,-0.00044404,0.0054219,0.004301,0.0043812,23:06.9
-0.01392,-0.00020698,0.0054321,0.0043203,0.0044197,23:06.9
-0.013795,-8.80E-05,0.0053628,0.0043117,0.0044476,23:06.9
-0.013835,-4.38E-05,0.0051894,0.0042902,0.0044718,23:06.9
-0.013968,-5.34E-05,0.0049261,0.0042523,0.0045106,23:06.9
-0.01394,4.11E-05,0.0046799,0.0041106,0.0045521,23:06.9
-0.013669,0.00027384,0.0044824,0.0039319,0.0045737,23:06.9
-0.013278,0.00044491,0.004308,0.0036284,0.0045626,23:06.9
-0.012759,0.00067611,0.0042078,0.0031793,0.0045458,23:06.9
-0.012207,0.00099651,0.0041562,0.0028582,0.0045269,23:06.9
-0.011778,0.0011401,0.0041115,0.002594,0.0044899,23:06.9
-0.011467,0.0011903,0.0040893,0.0022775,0.0044437,23:06.9
-0.011224,0.0012964,0.0041093,0.0021347,0.0044464,23:06.9
-0.011028,0.0013356,0.00417,0.0021368,0.0044866,23:06.9
-0.010942,0.0012458,0.0041407,0.0020857,0.0044658,23:06.9
-0.010964,0.0010367,0.0039935,0.001983,0.0043983,23:06.9
-0.011028,0.00065089,0.0038636,0.0018811,0.0042563,23:06.9
-0.011153,0.00012796,0.0036836,0.0018212,0.0040233,23:06.9
-0.011208,-0.0002903,0.0033959,0.0018464,0.0038816,23:06.9
-0.011134,-0.00047307,0.0031557,0.0019188,0.0038198,23:06.9
-0.011066,-0.00055787,0.0030349,0.0019607,0.003706,23:06.9
-0.010978,-0.00061767,0.0030188,0.0019857,0.0036009,23:06.9
-0.01089,-0.00059959,0.0030588,0.0020252,0.0035308,23:06.9
-0.010843,-0.000516,0.0030814,0.0020467,0.0034781,23:06.9
-0.01076,-0.00044168,0.0030911,0.0020508,0.0034467,23:06.9
-0.010651,-0.00042136,0.0030871,0.0020408,0.0033836,23:06.9
-0.010421,-0.00039792,0.0030584,0.0019849,0.0032868,23:06.9
-0.010038,-0.00033052,0.0030357,0.0019044,0.0031944,23:07.0
-0.0096549,-0.00026258,0.0030264,0.0018299,0.0030922,23:07.0
-0.0093111,-0.00022688,0.0030029,0.0017423,0.0029715,23:07.0
-0.0090607,-0.00024056,0.00295,0.0016632,0.0028691,23:07.0
-0.008968,-0.00028218,0.0028909,0.001617,0.0028111,23:07.0
-0.0089528,-0.000301,0.0028358,0.0015771,0.0027847,23:07.0
-0.0089412,-0.00029083,0.0027912,0.0015719,0.0027859,23:07.0
-0.0089322,-0.00029087,0.0027601,0.0015912,0.0027928,23:07.0
-0.0088155,-0.0002586,0.0027327,0.0015716,0.00277,23:07.0
-0.0085108,-0.00016519,0.0027181,0.0015315,0.0027233,23:07.0
-0.0082007,-0.00013899,0.0026918,0.0014627,0.0026385,23:07.0
-0.0078157,-6.79E-05,0.0026728,0.0013875,0.002547,23:07.0
-0.0072788,0.00014227,0.0026896,0.0013635,0.002506,23:07.0
-0.0069912,0.00019275,0.0026684,0.0013292,0.0024504,23:07.0
-0.006997,6.85E-05,0.002592,0.0012748,0.0023639,23:07.0
-0.0071408,-0.00011353,0.0024808,0.0012218,0.00229,23:07.0
-0.0074144,-0.00037173,0.0023395,0.0011585,0.0022044,23:07.0
-0.0074893,-0.00047552,0.0022302,0.0011602,0.0021557,23:07.0
-0.0072718,-0.00036296,0.0021712,0.0012068,0.0021648,23:07.0
-0.0069728,-0.00024318,0.0021151,0.0012008,0.0021311,23:07.0
-0.0066278,-0.000184,0.0020457,0.0011596,0.0020454,23:07.0
-0.0062783,-0.00015815,0.0019767,0.0011184,0.0019562,23:07.0
-0.005979,-0.00014399,0.0019058,0.0010849,0.0018617,23:07.0
-0.0057281,-0.00010154,0.0018451,0.0010912,0.0018001,23:07.0
-0.0055126,3.13E-06,0.0018134,0.0011642,0.0018064,4/7/2021 16:23
-0.0054159,7.61E-05,0.0017658,0.00125,0.0018275,23:07.0
-0.005486,3.75E-05,0.0016855,0.0013003,0.0018202,23:07.0
-0.0055849,-5.91E-05,0.001592,0.001334,0.001787,23:07.0
-0.0056244,-0.00017042,0.0014849,0.001335,0.0017247,23:07.0
-0.005503,-0.00022621,0.0013996,0.0013122,0.0016443,23:07.0
-0.0051881,-0.00019826,0.0013416,0.0013021,0.0015602,23:07.0
-0.0048649,-0.0001533,0.001292,0.001296,0.001476,23:07.0
-0.0045899,-0.00011748,0.0012546,0.0012904,0.001393,23:07.0
-0.0043753,-0.00010185,0.0012201,0.0013198,0.0013347,23:07.0
-0.0042986,-8.55E-05,0.0011962,0.0013982,0.0013291,23:07.0
-0.0043006,-5.49E-05,0.0011708,0.0014748,0.0013394,23:07.0
-0.0042958,-1.03E-05,0.0011449,0.0015692,0.0013683,23:07.0
-0.0042027,0.00012617,0.0011519,0.0017102,0.0014343,23:07.0
-0.0040242,0.00025721,0.0011457,0.0018085,0.0014505,23:07.0
-0.0038696,0.000225,0.0010884,0.0018236,0.0013856,23:07.0
-0.003718,0.00013404,0.0010172,0.0017837,0.0012691,23:07.0
-0.003572,6.10E-06,0.00093775,0.0017138,0.0011146,23:07.0
-0.0034752,-0.00016325,0.00085825,0.0016593,0.00098397,23:07.0
-0.0033539,-0.00019326,0.00083267,0.0016602,0.00091977,23:07.0
-0.003248,-0.00013327,0.00084775,0.0017192,0.0009116,23:07.0
-0.0032381,-9.10E-05,0.00086053,0.0018101,0.00094395,23:07.0
-0.0032621,-2.90E-05,0.00087437,0.0018988,0.00098689,23:07.0
-0.0032605,-1.27E-05,0.00087147,0.0019664,0.0010046,23:07.0
-0.0031342,2.93E-05,0.00087187,0.0020251,0.0010016,23:07.0
-0.0028371,0.00016951,0.00089012,0.0020656,0.00098672,23:07.0
-0.0024534,0.00031378,0.00088965,0.0020686,0.0009455,23:07.1
-0.0020131,0.00047093,0.00089755,0.0020637,0.00090122,23:07.1
-0.0017218,0.00051997,0.00088899,0.0020429,0.00083624,23:07.1
-0.0017367,0.00036837,0.00081599,0.0019859,0.00072788,23:07.1
-0.0018676,0.00014847,0.00072183,0.0019424,0.00063957,23:07.1
-0.0020871,-8.06E-05,0.00061896,0.0019282,0.00057965,23:07.1
-0.0022811,-0.00017213,0.00054504,0.0019573,0.00056453,23:07.1
-0.0022244,-7.53E-05,0.00052352,0.0020317,0.00060847,23:07.1
-0.0021069,-1.38E-05,0.00047413,0.0020547,0.00060618,23:07.1
-0.0018638,8.70E-05,0.00043493,0.0020531,0.00057319,23:07.1
-0.0013285,0.00036498,0.00046735,0.002102,0.00058491,23:07.1
-0.0009153,0.00052645,0.00046278,0.0021087,0.00055675,23:07.1
-0.00070621,0.00052565,0.00040481,0.0020672,0.00048327,23:07.1
-0.00051673,0.00056095,0.00036029,0.0020499,0.00045092,23:07.1
-0.00052951,0.00052383,0.00030072,0.0020432,0.00044037,23:07.1
-0.00059856,0.00051214,0.0002584,0.0020711,0.00044531,23:07.1
-0.00068151,0.00050902,0.00021248,0.0020921,0.0004517,23:07.1
-0.00097789,0.0002666,8.57E-05,0.0020197,0.00040493,23:07.1
-0.0010478,0.00014584,-3.30E-06,0.0019519,0.00035812,23:07.1
-0.00079277,0.00024592,-2.65E-05,0.0019235,0.00032301,23:07.1
-0.00059667,0.00023001,-8.23E-05,0.0018291,0.00024033,23:07.1
-0.00041094,0.00017868,-0.00013683,0.0016988,0.00013626,23:07.1
-0.00027745,0.00010293,-0.00018798,0.0015906,4.26E-05,23:07.1
-0.00027875,-1.10E-05,-0.00024306,0.0014998,-2.66E-05,23:07.1
-0.00030605,-3.82E-05,-0.00026064,0.0014468,-4.75E-05,23:07.1
-0.00037436,-2.02E-05,-0.00026085,0.001442,-1.59E-05,23:07.1
-0.00047918,-1.71E-05,-0.00027675,0.0014423,2.23E-05,23:07.1
-0.00054126,-3.78E-05,-0.00030206,0.0014114,3.48E-05,23:07.1
-0.00045847,6.21E-06,-0.00030965,0.0013778,5.18E-05,23:07.1
-0.00022497,0.00011675,-0.00031269,0.001314,3.60E-05,23:07.1
5.23E-05,0.00017726,-0.00032654,0.0011977,-3.61E-05,23:07.1
0.00028756,0.0001751,-0.00034528,0.0010871,-0.00010892,23:07.1
0.0004664,0.00018053,-0.00035582,0.00099142,-0.0001636,23:07.1
0.00062279,0.00024932,-0.00033253,0.00092813,-0.0001803,23:07.1
0.00064891,0.00027057,-0.00031154,0.00089592,-0.00016146,23:07.1
0.0005978,0.00030991,-0.00028725,0.00088952,-0.00011193,23:07.1
0.00062403,0.00045239,-0.00024025,0.00090739,-3.13E-05,23:07.1
0.00059976,0.00048347,-0.00023184,0.0008798,7.48E-07,23:07.1
0.00059534,0.00047384,-0.00024074,0.00083619,-1.22E-05,23:07.1
0.00069563,0.00045926,-0.00025704,0.0007508,-5.82E-05,23:07.1
0.00078418,0.00032719,-0.00030458,0.00057223,-0.00018449,23:07.1
0.00089232,0.0002264,-0.00033695,0.00042842,-0.00028904,23:07.1
0.00096888,0.0001367,-0.00036199,0.00031937,-0.00037581,23:07.1
0.00098874,4.99E-05,-0.00037343,0.00022611,-0.00044059,23:07.1
0.00099595,8.68E-05,-0.00034427,0.00022792,-0.00036694,23:07.1
0.00096548,0.00017744,-0.00031016,0.00026786,-0.00035444,23:07.1
0.00094737,0.00026546,-0.0002777,0.00030113,-0.00037177,23:07.1
0.00095534,0.00035207,-0.00024794,0.00032997,-0.00021527,23:07.1
0.001025,0.00041521,-0.00023258,0.00031658,-0.00015067,23:07.1
0.0011887,0.00043788,-0.00023863,0.00025833,-0.00022264,23:07.1
0.0013679,0.00043222,-0.00026748,0.00016772,-0.00027472,23:07.2
0.0015074,0.00038332,-0.00029644,5.85E-05,-0.00037397,23:07.2
0.0015937,0.00030158,-0.00032459,-3.08E-05,-0.00044785,23:07.2
0.0016378,0.00028861,-0.00033531,-6.40E-05,-0.00044842,23:07.2
0.0016295,0.00032784,-0.00031048,-4.47E-05,-0.00043618,23:07.2
0.0015905,0.00040901,-0.0002744,1.63E-05,-0.00036562,23:07.2
0.0015766,0.00055211,-0.00023952,9.85E-05,-0.0002668,23:07.2
0.0015767,0.00062861,-0.00022487,0.0001453,-0.00022319,23:07.2
0.0016048,0.00063199,-0.00023229,0.00014055,-0.00020997,23:07.2
0.0016453,0.00058327,-0.00025941,7.53E-05,-0.00025202,23:07.2
0.0016659,0.00043508,-0.0003252,-4.60E-05,-0.000373,23:07.2
0.0017177,0.00030639,-0.00038078,-0.00013391,-0.00046631,23:07.2
0.0017329,0.00021128,-0.00041314,-0.00018573,-0.00052869,23:07.2
0.0016763,0.00011519,-0.00045221,-0.00023279,-0.00058262,23:07.2
0.0016408,0.00012975,-0.00044683,-0.00019619,-0.00054389,23:07.2
0.0015092,0.00015741,-0.00042931,-0.00012419,-0.00046939,23:07.2
0.0012923,0.00011549,-0.00045285,-9.52E-05,-0.0004335,23:07.2
0.0012237,0.00014287,-0.00045118,-3.47E-05,-0.00037504,23:07.2
-0.00021468,4.69E-05,-0.001125,0.00044012,0.00013169,23:07.2
-0.017265,0.00037917,0.0039656,0.0059548,0.0060231,23:07.2
-0.0034568,0.00042501,3.94E-05,0.0016696,0.0014496,23:07.2
-0.011603,0.00069785,0.0025552,0.0043673,0.0043405,23:07.2
-0.0080527,0.00053937,0.0014578,0.0031623,0.003055,23:07.2
-0.0080584,0.00038798,0.0013567,0.0030558,0.0029532,23:07.2
-0.010466,0.00026888,0.0019286,0.0037189,0.0036677,23:07.2
-0.0080577,0.00016057,0.0011192,0.0028953,0.0027945,23:07.2
-0.010214,0.00030927,0.0017726,0.003658,0.0036295,23:07.2
-0.0091658,0.00040684,0.0014675,0.0033926,0.0033284,23:07.2
-0.0092842,0.00041238,0.0014641,0.0034217,0.0033495,23:07.2
-0.0096426,0.00052557,0.0016349,0.0035889,0.0035562,23:07.2
-0.008591,0.00064542,0.001408,0.0033102,0.0032634,23:07.2
-0.0092827,0.00052256,0.0015402,0.0034295,0.0033914,23:07.2
-0.0089955,0.00028532,0.0013366,0.0031886,0.0031474,23:07.2
-0.0092613,0.00011591,0.0013074,0.0031464,0.0031174,23:07.2
-0.0096097,-1.03E-05,0.0013008,0.0031647,0.0031532,23:07.2
-0.0095306,1.74E-06,0.0012249,0.0031518,0.0031358,23:07.2
-0.0098432,9.83E-05,0.0012994,0.0033001,0.0032941,23:07.2
-0.0097258,0.00017104,0.0012656,0.0032835,0.0033058,23:07.2
-0.0097792,0.00019328,0.0012657,0.0032852,0.0033374,23:07.2
-0.0097218,0.00020355,0.0012505,0.003253,0.0033216,23:07.2
-0.0094232,0.0002878,0.0012342,0.0031778,0.003269,23:07.2
-0.0092612,0.00035648,0.0012372,0.0031313,0.0032553,23:07.2
-0.0090779,0.0004056,0.0012212,0.0030761,0.0032331,23:07.2
-0.0090888,0.00042045,0.0012272,0.0030477,0.0032428,23:07.2
-0.009267,0.00033357,0.0011887,0.0030136,0.0032399,23:07.2
-0.0094721,0.00029683,0.0011781,0.0030317,0.0032887,23:07.2
-0.0096147,0.00031506,0.0011878,0.0030571,0.0033565,23:07.2
-0.0096504,0.00033039,0.0011743,0.00305,0.0033864,23:07.2
-0.0096488,0.00038128,0.0011866,0.0030556,0.0034139,23:07.2
-0.0095831,0.00036899,0.001174,0.0029797,0.003369,23:07.2
-0.0094283,0.00034229,0.0011598,0.0028631,0.0033003,23:07.3
-0.0092815,0.00034094,0.0011609,0.0027718,0.0032567,23:07.3
-0.0093238,0.00021039,0.0011159,0.0026447,0.0031794,23:07.3
-0.0094022,0.00012595,0.0010947,0.0025823,0.0031531,23:07.3
-0.0094435,0.00017604,0.0011174,0.0026077,0.0032083,23:07.3
-0.0096895,0.00010831,0.0010939,0.0025942,0.0032486,23:07.3
-0.0098805,9.12E-05,0.0010804,0.0026094,0.0033018,23:07.3
-0.00984,0.00024638,0.0011172,0.0026634,0.0033757,23:07.3
-0.0097958,0.00030727,0.0011248,0.002646,0.0033983,23:07.3
-0.0096609,0.0003352,0.0011244,0.0025883,0.0033833,23:07.3
-0.0094645,0.00041576,0.0011425,0.0025094,0.003355,23:07.3
-0.0092941,0.00047881,0.0011638,0.0024198,0.0033306,23:07.3
-0.0091329,0.00052102,0.001187,0.0023474,0.003313,23:07.3
-0.0093122,0.00034034,0.001145,0.0022434,0.0032523,23:07.3
-0.0097821,-6.08E-06,0.0010594,0.0021357,0.0031877,23:07.3
-0.010131,-0.00019527,0.0010218,0.0020888,0.0031889,23:07.3
-0.010373,-0.00027495,0.0010123,0.0020782,0.0032224,23:07.3
-0.010498,-0.00027606,0.0010252,0.0020794,0.0032624,23:07.3
-0.010386,-0.00013844,0.0010715,0.0020842,0.0033064,23:07.3
-0.010129,2.25E-05,0.0011348,0.0020763,0.0033351,23:07.3
-0.0098146,0.00017943,0.0012014,0.0020431,0.0033414,23:07.3
-0.0095736,0.00028928,0.0012277,0.0019887,0.0033217,23:07.3
-0.0094744,0.00033029,0.0012534,0.001959,0.0033133,23:07.3
-0.0094447,0.00037375,0.0013052,0.0019599,0.0033322,23:07.3
-0.0095869,0.00033664,0.0013285,0.0019655,0.0033499,23:07.3
-0.0098877,0.00023333,0.0013411,0.0020011,0.0033824,23:07.3
-0.010155,0.00011776,0.0013178,0.0020072,0.003393,23:07.3
-0.010385,-4.22E-05,0.0012703,0.0019532,0.0033615,23:07.3
-0.010483,-0.00011592,0.0012812,0.0019337,0.0033459,23:07.3
-0.010376,-9.71E-05,0.0012899,0.0019081,0.0033233,23:07.3
-0.010195,-7.76E-05,0.0012886,0.0018508,0.0032837,23:07.3
-0.010018,-3.15E-05,0.0013254,0.0018233,0.0032562,23:07.3
-0.0098684,5.96E-05,0.0013672,0.0018259,0.0032585,23:07.3
-0.0097573,0.00018832,0.001427,0.0018833,0.0033164,23:07.3
-0.0097773,0.00027061,0.0014859,0.0019612,0.0033942,23:07.3
-0.0098925,0.00035988,0.0015275,0.0020439,0.0034872,23:07.3
-0.0099444,0.00049608,0.0015749,0.0021583,0.003586,23:07.3
-0.0099882,0.00052284,0.0015871,0.0022137,0.0036202,23:07.3
-0.010047,0.00044744,0.0015563,0.002179,0.0035869,23:07.3
-0.01013,0.00026436,0.0014944,0.0020871,0.0034917,23:07.3
-0.010232,1.05E-05,0.0014138,0.0019611,0.0033588,23:07.3
-0.010238,-0.00012858,0.0013647,0.0018564,0.0032583,23:07.3
-0.010178,-0.00013401,0.0013805,0.0018316,0.0032524,23:07.3
-0.010063,3.28E-05,0.0014657,0.0019225,0.0033497,23:07.3
-0.0099896,0.00025173,0.0015426,0.0020347,0.0034456,23:07.3
-0.010022,0.00039581,0.0015999,0.0021455,0.0035461,23:07.3
-0.0099304,0.00066281,0.0017091,0.0023229,0.003709,23:07.3
-0.0099128,0.00078104,0.0017527,0.0024057,0.0037731,23:07.3
-0.010177,0.00050303,0.0016674,0.0023292,0.0036808,23:07.3
-0.010417,0.00018866,0.0015494,0.0022016,0.0035305,23:07.3
-0.010596,-0.00012403,0.001415,0.0020244,0.0033532,23:07.4
-0.010712,-0.00038014,0.0013433,0.0019136,0.0032502,23:07.4
-0.010654,-0.00035048,0.0013829,0.0019486,0.0032658,23:07.4
-0.010588,-0.00022437,0.0014392,0.0020178,0.0033202,23:07.4
-0.010614,-0.00011082,0.0014993,0.0021104,0.0034115,23:07.4
-0.010721,1.85E-07,0.0015652,0.0022344,0.0035206,23:07.4
-0.010847,4.72E-05,0.0016034,0.0023323,0.0035988,23:07.4
-0.010903,8.50E-05,0.0016292,0.0023945,0.0036539,23:07.4
-0.010897,0.00011394,0.0016485,0.0024246,0.003667,23:07.4
-0.010802,0.00013164,0.0016603,0.0024168,0.0036366,23:07.4
-0.010637,0.00015781,0.0016749,0.0023897,0.0036043,23:07.4
-0.010514,0.00015897,0.0016942,0.0023738,0.0035705,23:07.4
-0.010474,0.00015305,0.0017173,0.0023833,0.0035439,23:07.4
-0.010512,0.00015122,0.0017447,0.0024333,0.0035608,23:07.4
-0.010651,0.00014946,0.0017735,0.002512,0.0036127,23:07.4
-0.010851,0.00014917,0.001799,0.002592,0.0036754,23:07.4
-0.011014,0.00014479,0.0018206,0.0026739,0.0037388,23:07.4
-0.011119,0.00013864,0.0018256,0.0027282,0.0037668,23:07.4
-0.011113,0.00013423,0.0018178,0.0027374,0.0037499,23:07.4
-0.010986,0.00013593,0.0018199,0.0027245,0.0037178,23:07.4
-0.01087,0.00013275,0.0018296,0.0026986,0.0036699,23:07.4
-0.010747,0.00014535,0.0018427,0.0026759,0.0036212,23:07.4
-0.010648,0.00016165,0.0018585,0.0026814,0.0036159,23:07.4
-0.010694,0.0001649,0.0018817,0.0027337,0.0036497,23:07.4
-0.010837,0.00016459,0.001901,0.002797,0.0036868,23:07.4
-0.011023,0.00014736,0.0019071,0.0028584,0.0037404,23:07.4
-0.011189,0.00015542,0.0019208,0.0029391,0.0038053,23:07.4
-0.011298,0.00012932,0.0019165,0.0029631,0.0038223,23:07.4
-0.011146,0.00024716,0.0019523,0.0029953,0.0038556,23:07.4
-0.010653,0.00066927,0.0020816,0.0031153,0.0039553,23:07.4
-0.010346,0.00085758,0.0021373,0.0031446,0.003975,23:07.4
-0.010361,0.00070198,0.0020997,0.0030817,0.0038694,23:07.4
-0.010643,0.00037154,0.0020204,0.0029723,0.0037146,23:07.4
-0.011295,-0.00023159,0.0018525,0.0027855,0.0035621,23:07.4
-0.011689,-0.00048133,0.0017969,0.0027681,0.0035507,23:07.4
-0.011617,-0.00019439,0.0019131,0.0029377,0.0036992,23:07.4
-0.01161,-2.86E-05,0.0019816,0.0030344,0.0038208,23:07.4
-0.011674,-1.92E-05,0.0019975,0.0030692,0.0038547,23:07.4
-0.011686,-1.60E-05,0.0020155,0.0030929,0.0038489,23:07.4
-0.011629,-4.12E-05,0.0020202,0.0030758,0.0038115,23:07.4
-0.011465,-1.73E-05,0.0020385,0.0030545,0.0037783,23:07.4
-0.011314,3.97E-05,0.00208,0.0030523,0.0037737,23:07.4
-0.011213,0.00012222,0.0021365,0.0030829,0.0037907,23:07.4
-0.011201,0.000197,0.002187,0.0031542,0.0038412,23:07.4
-0.011374,0.00019597,0.0022202,0.0032398,0.0039088,23:07.4
-0.011597,0.00018799,0.0022568,0.0033302,0.0039732,23:07.4
-0.011798,0.00016115,0.0022775,0.0033992,0.0040212,23:07.4
-0.011999,7.43E-05,0.0022696,0.0034256,0.0040303,23:07.4
-0.012027,4.87E-05,0.0022858,0.0034462,0.0040162,23:07.4
-0.011925,6.45E-05,0.0023173,0.0034531,0.0039881,23:07.4
-0.011765,0.00012697,0.002369,0.0034667,0.0039815,23:07.5
-0.011491,0.00032333,0.0024761,0.0035306,0.0040243,23:07.5
-0.011379,0.00042515,0.0025551,0.0035972,0.0040542,23:07.5
-0.01154,0.00035763,0.0025828,0.0036587,0.0040686,23:07.5
-0.011804,0.00027474,0.0026027,0.0037174,0.0040944,23:07.5
-0.01217,0.00012212,0.002595,0.003759,0.0041094,23:07.5
-0.012499,-1.44E-05,0.0025933,0.0038227,0.0041335,23:07.5
-0.012578,1.84E-05,0.0026356,0.0039019,0.0041833,23:07.5
-0.012502,9.25E-05,0.0026768,0.0039468,0.0042129,23:07.5
-0.012448,9.39E-05,0.00269,0.0039448,0.0041835,23:07.5
-0.012388,6.18E-05,0.0026988,0.0039254,0.0041285,23:07.5
-0.012307,4.51E-05,0.0027106,0.0039263,0.0041047,23:07.5
-0.012316,5.17E-05,0.0027384,0.0039665,0.0041238,23:07.5
-0.012349,0.00013576,0.002805,0.0040606,0.0041804,23:07.5
-0.012308,0.00036911,0.0029121,0.0042344,0.0043198,23:07.5
-0.012332,0.00059544,0.0030195,0.0044318,0.0044981,23:07.5
-0.012508,0.00060637,0.0030321,0.0045308,0.0045514,23:07.5
-0.012823,0.00039289,0.0029554,0.0045256,0.0044933,23:07.5
-0.01318,6.29E-05,0.0028818,0.0044563,0.0044018,23:07.5
-0.013329,-0.00016099,0.0028352,0.0043749,0.0042954,23:07.5
-0.013228,-0.00017333,0.0028367,0.0043739,0.0042631,23:07.5
-0.013101,-0.00010783,0.0028862,0.004413,0.0042802,23:07.5
-0.013056,-3.57E-05,0.0029445,0.0044484,0.0042999,23:07.5
-0.01309,3.02E-05,0.0030024,0.0045386,0.0043693,23:07.5
-0.01326,5.12E-05,0.0030531,0.004659,0.004451,23:07.5
-0.013486,7.52E-05,0.0031031,0.004768,0.0045308,23:07.5
-0.013632,0.00012492,0.0031521,0.0048668,0.0046153,23:07.5
-0.013718,0.00014905,0.003179,0.0049289,0.0046532,23:07.5
-0.013684,0.00018452,0.0031993,0.0049528,0.0046564,23:07.5
-0.013537,0.00024446,0.0032247,0.0049539,0.0046487,23:07.5
-0.013423,0.00027605,0.0032547,0.004944,0.0046231,23:07.5
-0.013333,0.00030816,0.003294,0.0049459,0.0046087,23:07.5
-0.013322,0.00032381,0.0033221,0.004961,0.0046225,23:07.5
-0.013506,0.00027739,0.0033375,0.0049954,0.0046479,23:07.5
-0.013784,0.00021336,0.0033588,0.005049,0.0046936,23:07.5
-0.01408,0.00013837,0.0033689,0.0050988,0.0047523,23:07.5
-0.014362,7.04E-05,0.0033635,0.0051406,0.004796,23:07.5
-0.01448,7.85E-05,0.003373,0.0051765,0.0048412,23:07.5
-0.014436,0.00012499,0.0033952,0.0051942,0.0048716,23:07.5
-0.014366,0.00014945,0.003412,0.0051775,0.0048493,23:07.5
-0.014279,0.00016707,0.0034308,0.0051486,0.0048171,23:07.5
-0.0142,0.0001928,0.0034585,0.005149,0.0048145,23:07.5
-0.014195,0.00024081,0.0034987,0.0051767,0.0048404,23:07.5
-0.014287,0.00029484,0.0035497,0.0052353,0.0049116,23:07.5
-0.014505,0.00031234,0.0035932,0.0053182,0.0050115,23:07.5
-0.014798,0.00028547,0.0036181,0.0053822,0.0050801,23:07.5
-0.015026,0.00024945,0.0036374,0.0054287,0.0051283,23:07.5
-0.015146,0.00023945,0.0036581,0.0054662,0.0051775,23:07.5
-0.015196,0.00023552,0.003685,0.0054802,0.0051839,23:07.5
-0.015086,0.00029327,0.003737,0.0054868,0.0051773,23:07.5
-0.014829,0.00046674,0.0038156,0.0055214,0.0052118,23:07.6
-0.014688,0.00058449,0.003891,0.0055732,0.0052486,23:07.6
-0.014726,0.0005901,0.0039422,0.0056191,0.0052762,23:07.6
-0.014825,0.00065679,0.0040118,0.0057074,0.0053515,23:07.6
-0.015059,0.00069298,0.0040833,0.0058077,0.0054504,23:07.6
-0.015483,0.00049864,0.0040624,0.0058314,0.0054692,23:07.6
-0.015951,0.00022029,0.0040024,0.0058288,0.0054374,23:07.6
-0.016295,2.98E-05,0.0039854,0.0058299,0.0054328,23:07.6
-0.016422,-8.05E-05,0.0039873,0.0058224,0.0054115,23:07.6
-0.016345,-6.87E-05,0.004016,0.00586,0.0053877,23:07.6
-0.016193,3.88E-05,0.004078,0.0059265,0.0054057,23:07.6
-0.01608,0.00012934,0.004144,0.0059843,0.0054335,23:07.6
-0.016065,0.00020103,0.0042068,0.0060772,0.0054836,23:07.6
-0.016216,0.00024172,0.0042642,0.0062062,0.0055631,23:07.6
-0.016488,0.00023534,0.0043102,0.0063304,0.0056489,23:07.6
-0.016767,0.00021672,0.0043432,0.006456,0.0057306,23:07.6
-0.01705,0.00016755,0.0043619,0.0065705,0.0057875,23:07.6
-0.017232,0.00014087,0.0043803,0.0066483,0.0058332,23:07.6
-0.017234,0.00016646,0.0044075,0.0067052,0.0058564,23:07.6
-0.017213,0.00016434,0.0044309,0.0067442,0.0058342,23:07.6
-0.0172,0.00014989,0.0044588,0.0067665,0.0058094,23:07.6
-0.017187,0.00014403,0.004502,0.0068082,0.0058104,23:07.6
-0.017279,0.0001385,0.004558,0.0068854,0.0058444,23:07.6
-0.017477,0.00013787,0.0046249,0.0069814,0.005913,23:07.6
-0.017763,0.00012748,0.0046889,0.0071045,0.0060072,23:07.6
-0.018068,0.00012532,0.0047508,0.0072409,0.0061034,23:07.6
-0.018281,0.00013333,0.0048133,0.00735,0.0061781,23:07.6
-0.0184,0.00015597,0.0048662,0.0074369,0.0062426,23:07.6
-0.018462,0.00014898,0.0049032,0.0074797,0.006254,23:07.6
-0.018481,7.13E-05,0.0049243,0.0074681,0.0061992,23:07.6
-0.018485,3.21E-05,0.0049582,0.0074698,0.0061765,23:07.6
-0.018506,5.23E-05,0.0050162,0.0075072,0.0061999,23:07.6
-0.018574,6.96E-05,0.0050785,0.0075633,0.0062375,23:07.6
-0.018763,8.53E-05,0.0051509,0.0076548,0.0063118,23:07.6
-0.019073,7.92E-05,0.0052222,0.0077716,0.0064034,23:07.6
-0.01935,7.13E-05,0.0052792,0.0078765,0.0064959,23:07.6
-0.019573,7.82E-05,0.005337,0.0079629,0.0065894,23:07.6
-0.019752,7.60E-05,0.005388,0.0080174,0.0066426,23:07.6
-0.019794,8.51E-05,0.005429,0.0080266,0.0066537,23:07.6
-0.019746,0.00010465,0.0054693,0.0080191,0.0066564,23:07.6
-0.019718,0.00011417,0.0055134,0.0080112,0.006652,23:07.6
-0.019761,0.00010354,0.0055621,0.0080093,0.0066507,23:07.6
-0.019891,7.18E-05,0.0056069,0.0080365,0.0066808,23:07.6
-0.020117,5.75E-05,0.0056603,0.0081006,0.0067533,23:07.6
-0.020452,4.45E-05,0.0057164,0.0081826,0.0068529,23:07.6
-0.020778,2.14E-05,0.0057587,0.0082553,0.0069525,23:07.6
-0.021005,4.92E-05,0.0058112,0.0083201,0.0070402,23:07.6
-0.021159,7.72E-05,0.0058634,0.0083547,0.0070989,23:07.6
-0.021179,9.67E-05,0.0059082,0.0083466,0.0071302,23:07.6
-0.021094,0.00019155,0.0059834,0.008347,0.0071623,23:07.6
-0.021009,0.00029889,0.0060832,0.0083731,0.0071863,23:07.7
-0.020903,0.00040762,0.006199,0.0084586,0.0072225,23:07.7
-0.020927,0.00050044,0.0063223,0.0085884,0.0072887,23:07.7
-0.021233,0.00042845,0.0064149,0.0086769,0.0073231,23:07.7
-0.02171,0.00022196,0.0064761,0.0087562,0.0073297,23:07.7
-0.022231,-2.02E-06,0.0065264,0.008835,0.0073471,23:07.7
-0.02267,-0.00020717,0.0065686,0.0088959,0.0073448,23:07.7
-0.022955,-0.00033935,0.0066098,0.0089428,0.0073348,23:07.7
-0.023047,-0.00032998,0.0066878,0.0089403,0.0073481,23:07.7
-0.022951,-0.000209,0.0067933,0.0089476,0.0073638,23:07.7
-0.022822,-6.14E-05,0.0068648,0.0089734,0.0074104,23:07.7
-0.022775,0.00012241,0.0068932,0.0089969,0.0075181,23:07.7
-0.022848,0.00030658,0.0068734,0.0090504,0.0076621,23:07.7
-0.022975,0.00055568,0.0068433,0.0090931,0.0078805,23:07.7
-0.023099,0.00094077,0.0068619,0.0091246,0.0081538,23:07.7
-0.023274,0.0012004,0.006879,0.0090255,0.0083846,23:07.7
-0.0234,0.0013783,0.0068879,0.0087425,0.0085782,23:07.7
-0.023452,0.0016185,0.0069278,0.0085009,0.0087085,23:07.7
-0.023492,0.0017004,0.0069745,0.0082637,0.0087405,23:07.7
-0.0234,0.0017191,0.0070434,0.0079622,0.008751,23:07.7
-0.02325,0.0017921,0.0071671,0.007758,0.0087704,23:07.7
-0.023203,0.0017823,0.0073337,0.0076466,0.0087804,23:07.7
-0.023293,0.0016697,0.0075046,0.0075808,0.0088022,23:07.7
-0.023586,0.0015039,0.0076285,0.0075665,0.0088641,23:07.7
-0.023994,0.0013563,0.0077158,0.0076188,0.0089571,23:07.7
-0.024438,0.001103,0.0078241,0.0077572,0.0090465,23:07.7
-0.024955,0.00072192,0.0079061,0.0079224,0.0091155,23:07.7
-0.025456,0.00042251,0.0078441,0.0081171,0.0091712,23:07.7
-0.025823,0.00020307,0.0077379,0.0083239,0.0092043,23:07.7
-0.026016,8.51E-05,0.0077968,0.0084465,0.0091598,23:07.7
-0.026074,9.12E-05,0.0079689,0.0085104,0.0090744,23:07.7
-0.026099,0.00013271,0.0081539,0.0085857,0.0090502,23:07.7
-0.026221,0.00019566,0.0083535,0.0086848,0.0090696,23:07.7
-0.026487,0.0002307,0.0085162,0.008801,0.0091134,23:07.7
-0.02683,0.00022418,0.0086582,0.0089275,0.0091937,23:07.7
-0.027179,0.00023675,0.0088155,0.0090592,0.0092879,23:07.7
-0.027429,0.0002782,0.0089465,0.0091637,0.0093806,23:07.7
-0.027594,0.00029644,0.0090505,0.0092206,0.0094322,23:07.7
-0.027723,0.00028782,0.0091528,0.0092523,0.0094434,23:07.7
-0.027717,0.0003321,0.0092521,0.0092663,0.0094636,23:07.7
-0.027623,0.00047916,0.0093764,0.0093034,0.0095319,23:07.7
-0.027624,0.00063512,0.0095263,0.0093814,0.0096337,23:07.7
-0.02785,0.00061378,0.009629,0.0094314,0.0096992,23:07.7
-0.028295,0.00049202,0.0097154,0.0094919,0.0097728,23:07.7
-0.028784,0.00043553,0.009836,0.0095962,0.0098917,23:07.7
-0.029128,0.0004594,0.0099783,0.0097199,0.01003,23:07.7
-0.029354,0.00053002,0.010132,0.0098584,0.010175,23:07.7
-0.029677,0.00045377,0.010211,0.0098826,0.010208,23:07.7
-0.030035,0.0002323,0.010232,0.009813,0.010147,23:07.7
-0.030355,-3.86E-05,0.010256,0.0097573,0.01009,23:07.7
-0.030614,-0.00023257,0.010307,0.0097282,0.010052,23:07.8
-0.030521,1.37E-05,0.010496,0.0098486,0.010169,23:07.8
-0.030356,0.00040466,0.01074,0.010054,0.010392,23:07.8
-0.030632,0.00046775,0.010883,0.010195,0.010543,23:07.8
-0.031156,0.00037098,0.010953,0.010303,0.010636,23:07.8
-0.031716,0.0001959,0.010991,0.010376,0.010698,23:07.8
-0.032234,7.39E-06,0.011036,0.01044,0.010758,23:07.8
-0.032529,-5.74E-05,0.011095,0.010507,0.010816,23:07.8
-0.03262,-3.54E-05,0.01117,0.010555,0.010856,23:07.8
-0.03265,1.58E-05,0.011278,0.010602,0.010899,23:07.8
-0.032721,2.41E-05,0.011372,0.010627,0.010924,23:07.8
-0.03287,1.85E-05,0.011471,0.010676,0.010967,23:07.8
-0.033132,2.11E-05,0.011603,0.010779,0.011061,23:07.8
-0.033497,4.38E-06,0.011735,0.010887,0.011166,23:07.8
-0.033883,1.84E-05,0.011874,0.011019,0.011299,23:07.8
-0.034263,4.80E-05,0.012005,0.011161,0.011444,23:07.8
-0.034572,6.91E-05,0.012115,0.011256,0.011554,23:07.8
-0.03477,8.40E-05,0.012213,0.011322,0.011637,23:07.8
-0.034908,8.85E-05,0.012298,0.01136,0.011686,23:07.8
-0.034993,9.54E-05,0.012385,0.011362,0.011704,23:07.8
-0.035076,8.88E-05,0.012467,0.011378,0.011734,23:07.8
-0.035261,8.49E-05,0.012554,0.011428,0.011797,23:07.8
-0.035542,9.40E-05,0.012671,0.011501,0.011895,23:07.8
-0.035914,0.00010076,0.012786,0.011615,0.012025,23:07.8
-0.03637,9.68E-05,0.012894,0.011754,0.01217,23:07.8
-0.036799,7.04E-05,0.012996,0.011877,0.012301,23:07.8
-0.037108,8.15E-05,0.013092,0.011986,0.012417,23:07.8
-0.037321,0.00012525,0.013197,0.012076,0.012509,23:07.8
-0.037468,0.00013849,0.013284,0.012125,0.012554,23:07.8
-0.037563,0.00014496,0.013365,0.012156,0.012596,23:07.8
-0.037747,0.0001091,0.013456,0.012182,0.012636,23:07.8
-0.038055,2.74E-05,0.013536,0.012216,0.012673,23:07.8
-0.038393,-1.49E-06,0.013641,0.012316,0.012776,23:07.8
-0.038776,3.22E-05,0.013776,0.012462,0.012933,23:07.8
-0.039214,8.29E-05,0.013906,0.012628,0.01311,23:07.8
-0.03968,0.00010351,0.014028,0.012805,0.013277,23:07.8
-0.040128,6.46E-05,0.014119,0.01293,0.013396,23:07.8
-0.040507,1.69E-05,0.014196,0.013016,0.013482,23:07.8
-0.040746,-9.93E-07,0.014283,0.013089,0.013543,23:07.8
-0.040954,-1.49E-05,0.014384,0.013157,0.01362,23:07.8
-0.041251,7.54E-06,0.014514,0.013258,0.013699,23:07.8
-0.04146,0.00012597,0.014693,0.013431,0.013871,23:07.8
-0.041857,0.00029515,0.014964,0.013717,0.014165,23:07.8
-0.042483,0.00040088,0.015173,0.013961,0.014376,23:07.8
-0.043225,0.00036453,0.015331,0.014178,0.014624,23:07.8
-0.044226,0.00019,0.015512,0.014415,0.014813,23:07.8
-0.044817,-2.79E-05,0.015528,0.014468,0.01487,23:07.8
-0.045097,-0.00012968,0.015572,0.014528,0.014944,23:07.8
-0.045016,-5.78E-05,0.015594,0.014547,0.014853,23:07.8
-0.044418,0.00013757,0.01554,0.014461,0.01493,23:07.8
-0.043227,0.00032556,0.015347,0.014225,0.014433,23:07.9
-0.038857,0.00025354,0.01396,0.012801,0.012539,23:07.9
-0.032779,-1.41E-06,0.011823,0.010599,0.010761,23:07.9
-0.028618,-0.00016483,0.010315,0.009085,0.0094824,23:07.9
-0.025189,-0.00025932,0.0091527,0.0079594,0.0081721,23:07.9
-0.022392,-0.00025337,0.0080963,0.0069212,0.0072041,23:07.9
-0.020109,-0.00014168,0.0072375,0.0061491,0.0063911,23:07.9
-0.017339,-8.45E-05,0.0064909,0.0053378,0.0055656,23:07.9
-0.014969,-4.62E-05,0.0058456,0.0045451,0.0047986,23:07.9
-0.012775,3.49E-05,0.0051632,0.0039414,0.0041492,23:07.9
-0.010603,0.00010136,0.0045624,0.0033586,0.0035899,23:07.9
-0.0087715,0.00013875,0.0040452,0.0027749,0.0029772,23:07.9
-0.0072985,0.00017412,0.0035146,0.0022732,0.002465,23:07.9
-0.0062176,0.00013742,0.003071,0.0018353,0.0020438,23:07.9
-0.0051263,8.88E-06,0.0025971,0.0014069,0.0016063,23:07.9
-0.0040969,-5.96E-05,0.0021246,0.00099948,0.001208,23:07.9
-0.0030833,-5.95E-05,0.0018184,0.00069571,0.00090185,23:07.9
-0.001847,-3.45E-05,0.001494,0.00035565,0.00057385,23:07.9
-0.00061262,1.78E-05,0.0011377,-4.58E-05,0.0001707,23:07.9
0.00063703,9.67E-05,0.00082932,-0.00041102,-0.00019206,23:07.9
0.0019961,0.00024126,0.00053061,-0.00077014,-0.00053779,23:07.9
0.0030305,0.00038928,0.00032037,-0.0010252,-0.00080488,23:07.9
0.0039262,0.00062111,0.00010589,-0.0012407,-0.0009915,23:07.9
0.0049125,0.00081939,-4.61E-05,-0.001371,-0.0011524,23:07.9
0.0053183,0.00070633,-0.00026368,-0.0015742,-0.0013971,23:07.9
0.0057677,0.000578,-0.00057076,-0.0018873,-0.0016156,23:07.9
0.0062654,0.00042849,-0.0007481,-0.0020623,-0.0017478,23:07.9
0.006501,4.16E-05,-0.0011745,-0.0025319,-0.0022311,23:07.9
0.0071695,-0.00021942,-0.0014046,-0.0028329,-0.0025151,23:07.9
0.0074715,-0.00033951,-0.0016649,-0.0031537,-0.002826,23:07.9
0.0082654,-0.00056963,-0.0020704,-0.0036626,-0.003323,23:07.9
0.0089495,-0.00065388,-0.0018976,-0.0035429,-0.0032053,23:07.9
0.009053,-0.00045465,-0.0025198,-0.0041979,-0.0038065,23:07.9
0.010848,-0.00025519,-0.0019886,-0.0035814,-0.0032174,23:07.9
0.0096694,0.00013407,0.00031138,-0.001027,-0.00077234,23:07.9
0.0045446,0.00061715,0.00037545,-0.00090856,-0.00057673,23:07.9
0.0021987,0.00045071,5.00E-05,-0.0012584,-0.00087342,23:07.9
0.0052807,0.00011833,-0.00045757,-0.0018221,-0.0014499,23:07.9
0.011298,0.00012142,-0.0027322,-0.0043542,-0.0038851,23:07.9
0.013521,-2.01E-05,-0.0033115,-0.0050324,-0.0045321,23:07.9
0.012785,-0.00022688,-0.0030885,-0.0048067,-0.0043179,23:07.9
0.013618,-0.00037066,-0.0035933,-0.0053871,-0.0048716,23:07.9
0.01386,-0.00040912,-0.0035481,-0.0053263,-0.0048,23:07.9
0.013983,-0.00027683,-0.003644,-0.0053888,-0.004845,23:07.9
0.014401,-0.0002229,-0.0037589,-0.005479,-0.0049238,23:07.9
0.01431,-0.00019815,-0.0037505,-0.0054278,-0.0048668,23:07.9
0.014683,-0.00015488,-0.0038923,-0.0055565,-0.0049863,23:07.9
0.015025,-0.00013365,-0.0039216,-0.0055948,-0.0050104,23:07.9
0.015454,-7.68E-05,-0.0040463,-0.0057543,-0.005159,23:07.9
0.016016,-6.14E-05,-0.0041683,-0.005914,-0.0053205,23:07.9
0.016403,-6.20E-05,-0.004249,-0.0060351,-0.0054314,23:08.0
0.016733,-6.30E-05,-0.0043771,-0.0061745,-0.0055748,23:08.0
0.016797,-0.00010379,-0.004463,-0.0062155,-0.0056304,23:08.0
0.016835,-0.00013462,-0.0045352,-0.0062407,-0.0056633,23:08.0
0.016873,-0.00014114,-0.0045848,-0.0062261,-0.0056638,23:08.0
0.016855,-0.00012435,-0.0046456,-0.0062091,-0.0056407,23:08.0
0.016982,-0.00011188,-0.0047284,-0.0062361,-0.0056644,23:08.0
0.01724,-0.0001088,-0.0048111,-0.006288,-0.0057366,23:08.0
0.0175,-0.00010905,-0.0049257,-0.0063976,-0.0058603,23:08.0
0.017795,-0.0001111,-0.0050496,-0.0065051,-0.0059859,23:08.0
0.01818,-9.65E-05,-0.0051328,-0.0065844,-0.0060891,23:08.0
0.018401,-0.00011023,-0.0051957,-0.0066538,-0.0061752,23:08.0
0.018558,-2.02E-05,-0.0052305,-0.0066309,-0.0061661,23:08.0
0.018856,0.00028698,-0.0051854,-0.0064954,-0.0060432,23:08.0
0.019032,0.00057372,-0.0051292,-0.0063537,-0.0059096,23:08.0
0.018979,0.00057515,-0.0051719,-0.0063134,-0.0058914,23:08.0
0.018767,0.00029933,-0.0053121,-0.006389,-0.006003,23:08.0
0.018619,6.30E-05,-0.005454,-0.006496,-0.0061349,23:08.0
0.018793,1.72E-05,-0.0055433,-0.0065816,-0.0062584,23:08.0
0.019196,9.59E-05,-0.0055766,-0.0066095,-0.0063282,23:08.0
0.019538,0.0001852,-0.0056091,-0.0066224,-0.0063672,23:08.0
0.019536,2.17E-05,-0.0057278,-0.0067212,-0.0064924,23:08.0
0.019265,-0.00029811,-0.0058689,-0.0068257,-0.006603,23:08.0
0.018863,-0.0006016,-0.0059918,-0.0068725,-0.0066736,23:08.0
0.018457,-0.0008383,-0.006104,-0.0068736,-0.0067202,23:08.0
0.018396,-0.0007716,-0.0061165,-0.0067848,-0.0066396,23:08.0
0.018579,-0.00055926,-0.0060767,-0.0066871,-0.0065652,23:08.0
0.018823,-0.00043338,-0.0060934,-0.006673,-0.006577,23:08.0
0.019165,-0.00031767,-0.0061282,-0.006698,-0.0065904,23:08.0
0.019474,-0.00024772,-0.0061648,-0.0067437,-0.0066415,23:08.0
0.019712,-0.00023552,-0.0062303,-0.0068072,-0.0067121,23:08.0
0.01981,-0.00022895,-0.0062811,-0.0068258,-0.0067433,23:08.0
0.019766,-0.00019456,-0.0062867,-0.0067783,-0.0067231,23:08.0
0.019691,-0.00013354,-0.006268,-0.0067025,-0.0066507,23:08.0
0.019541,-0.00012052,-0.0062517,-0.0066191,-0.0065805,23:08.0
0.019349,-0.00013638,-0.0062517,-0.0065496,-0.0065325,23:08.0
0.01928,-0.00013182,-0.0062592,-0.006525,-0.0065071,23:08.0
0.019391,-0.00013342,-0.00628,-0.006545,-0.0065365,23:08.0
0.019529,-0.00012251,-0.0063007,-0.0065922,-0.0066024,23:08.0
0.019697,-9.91E-05,-0.0063088,-0.0066503,-0.0066693,23:08.0
0.019913,-0.0001076,-0.0063325,-0.0066976,-0.0067282,23:08.0
0.01996,-0.00013288,-0.0063459,-0.0067134,-0.0067517,23:08.0
0.019847,-0.00015721,-0.00634,-0.006678,-0.0067192,23:08.0
0.01964,-0.00020332,-0.0063418,-0.0066102,-0.0066622,23:08.0
0.019309,-0.00026965,-0.0063373,-0.0065518,-0.0066051,23:08.0
0.01916,-0.00022349,-0.0063153,-0.0064778,-0.0065265,23:08.0
0.019199,-0.00011983,-0.0062839,-0.0064083,-0.0064591,23:08.0
0.019158,-0.00013319,-0.0063193,-0.0064184,-0.0064709,23:08.0
0.01933,-5.58E-05,-0.0063856,-0.0064446,-0.0065038,23:08.0
0.019646,8.15E-05,-0.0063681,-0.0064412,-0.0065036,23:08.0
0.019794,0.00012372,-0.0063497,-0.0064403,-0.006507,23:08.1
0.019926,0.00024771,-0.0063439,-0.0064083,-0.0064798,23:08.1
0.019795,0.00023885,-0.0063272,-0.0063711,-0.0064349,23:08.1
0.019259,-4.56E-05,-0.0063732,-0.0063653,-0.0064389,23:08.1
0.018703,-0.00031359,-0.0064354,-0.0063565,-0.0064469,23:08.1
0.018302,-0.00046213,-0.0064848,-0.0063224,-0.0064109,23:08.1
0.018139,-0.00046466,-0.0065027,-0.0062558,-0.0063561,23:08.1
0.018263,-0.00032946,-0.0064381,-0.0061919,-0.0063129,23:08.1
0.018487,-0.00019791,-0.0063654,-0.0061698,-0.0062947,23:08.1
0.018653,-0.00012974,-0.0063271,-0.0061684,-0.0063024,23:08.1
0.018787,-6.42E-05,-0.0062734,-0.0061476,-0.0063018,23:08.1
0.018732,-5.89E-05,-0.0062331,-0.0061237,-0.0062917,23:08.1
0.018404,-0.00016621,-0.0062164,-0.0060904,-0.0062677,23:08.1
0.018068,-0.00022268,-0.0061559,-0.0059898,-0.006176,23:08.1
0.017809,-0.00016891,-0.0060666,-0.0058472,-0.0060465,23:08.1
0.017673,-4.87E-06,-0.0059609,-0.0056906,-0.0059015,23:08.1
0.017709,0.00020409,-0.0058425,-0.0055576,-0.0057686,23:08.1
0.017711,0.00023337,-0.0057916,-0.0055317,-0.0057414,23:08.1
0.017632,0.00010613,-0.005812,-0.0055947,-0.005807,23:08.1
0.017495,-0.0001032,-0.0058605,-0.0056943,-0.0059117,23:08.1
0.01724,-0.00038191,-0.0059154,-0.0057841,-0.0060118,23:08.1
0.016978,-0.00054946,-0.005921,-0.0057983,-0.0060376,23:08.1
0.016755,-0.00055704,-0.0058544,-0.0057208,-0.0059641,23:08.1
0.016494,-0.00049928,-0.0057508,-0.0055774,-0.0058212,23:08.1
0.016188,-0.00043044,-0.0056488,-0.005421,-0.0056758,23:08.1
0.015963,-0.00035599,-0.0055555,-0.0052986,-0.0055549,23:08.1
0.015859,-0.00027683,-0.0054645,-0.0052111,-0.0054602,23:08.1
0.015777,-0.0002453,-0.0054054,-0.0051703,-0.0054284,23:08.1
0.015814,-0.00023002,-0.0053745,-0.0051806,-0.0054399,23:08.1
0.015934,-0.00019284,-0.0053212,-0.00518,-0.0054505,23:08.1
0.015936,-0.00017268,-0.0052599,-0.0051529,-0.0054447,23:08.1
0.015846,-0.00016289,-0.005207,-0.0051214,-0.0053951,23:08.1
0.015609,-0.00015789,-0.0051338,-0.0050313,-0.0052965,23:08.1
0.015213,-0.00016357,-0.0050422,-0.0048919,-0.0051725,23:08.1
0.014827,-0.00017182,-0.0049607,-0.0047703,-0.0050501,23:08.1
0.014498,-0.00018414,-0.0048969,-0.004656,-0.0049411,23:08.1
0.014253,-0.00018867,-0.0048315,-0.0045775,-0.004871,23:08.1
0.014169,-0.00018216,-0.0047768,-0.0045606,-0.0048545,23:08.1
0.014196,-0.00017559,-0.0047413,-0.004551,-0.0048422,23:08.1
0.014216,-0.00017182,-0.0046971,-0.004545,-0.0048386,23:08.1
0.014194,-0.00016891,-0.0046473,-0.0045366,-0.0048417,23:08.1
0.014056,-0.00016432,-0.0045876,-0.0044799,-0.0047864,23:08.1
0.013738,-0.00016262,-0.0045027,-0.0043691,-0.0046812,23:08.1
0.013347,-0.00016368,-0.004416,-0.0042274,-0.0045505,23:08.1
0.012941,-0.00016924,-0.004329,-0.0040844,-0.00441,23:08.1
0.012544,-0.00018253,-0.0042352,-0.0039562,-0.0042922,23:08.1
0.012294,-0.00018645,-0.0041628,-0.0038671,-0.0042054,23:08.1
0.012189,-0.00017838,-0.0041122,-0.0038286,-0.0041638,23:08.1
0.012181,-0.00017298,-0.0040705,-0.003819,-0.0041632,23:08.1
0.012211,-0.00016772,-0.0040288,-0.00382,-0.0041611,23:08.1
0.012124,-0.00015801,-0.003966,-0.0037948,-0.0041325,23:08.2
0.011923,-0.00014502,-0.0038848,-0.0037213,-0.0040709,23:08.2
0.011639,-0.00012372,-0.0037953,-0.0036017,-0.0039525,23:08.2
0.011238,-9.28E-05,-0.0036938,-0.0034442,-0.0037841,23:08.2
0.010828,-4.29E-05,-0.0035711,-0.0032826,-0.0036213,23:08.2
0.010523,1.77E-05,-0.0034512,-0.0031379,-0.0034798,23:08.2
0.010308,5.19E-05,-0.0033621,-0.0030228,-0.0033668,23:08.2
0.010159,8.30E-05,-0.003292,-0.0029725,-0.0033157,23:08.2
0.010105,8.84E-05,-0.0032457,-0.0029846,-0.0033137,23:08.2
0.010019,-3.25E-06,-0.0032095,-0.003,-0.0033352,23:08.2
0.0097849,-0.00013194,-0.0031707,-0.0030065,-0.0033504,23:08.2
0.0094674,-0.00024792,-0.0031394,-0.003006,-0.0033115,23:08.2
0.0090727,-0.0003073,-0.0030627,-0.0029261,-0.0032035,23:08.2
0.0086468,-0.00026278,-0.002931,-0.0027664,-0.0030373,23:08.2
0.0082402,-0.00020755,-0.0028031,-0.0026102,-0.0028577,23:08.2
0.0078807,-0.0001653,-0.0026888,-0.0024755,-0.0027053,23:08.2
0.0076464,-0.00010791,-0.0025819,-0.0023829,-0.0025966,23:08.2
0.0074747,-9.26E-05,-0.0024866,-0.0023657,-0.0025491,23:08.2
-0.021469,-0.00089308,0.0054729,0.010106,0.0064182,23:08.2
-0.029869,-0.0011094,0.0073998,0.013614,0.0089893,23:08.2
-0.022624,-0.0008963,0.0057689,0.010676,0.0067844,23:08.2
-0.026704,-0.00097903,0.0067018,0.012381,0.0080481,23:08.2
-0.02479,-0.00089047,0.0062581,0.011618,0.007487,23:08.2
-0.024721,-0.00087017,0.0062171,0.011599,0.0074777,23:08.2
-0.025848,-0.00090578,0.0064215,0.012046,0.0078235,23:08.2
-0.024476,-0.00088745,0.0060413,0.011457,0.0073968,23:08.2
-0.025412,-0.00095911,0.006198,0.011814,0.0076585,23:08.2
-0.024592,-0.00099044,0.0059764,0.011441,0.0073637,23:08.2
-0.02425,-0.00099937,0.0058953,0.011302,0.0072373,23:08.2
-0.024079,-0.00097889,0.0058849,0.011269,0.0071895,23:08.2
-0.023311,-0.00092192,0.0057356,0.010983,0.0069637,23:08.2
-0.023416,-0.00086959,0.0057653,0.011068,0.0070357,23:08.2
-0.023045,-0.0008058,0.0056718,0.01095,0.0069581,23:08.2
-0.023085,-0.0008092,0.0056399,0.010953,0.0069675,23:08.2
-0.023232,-0.00087286,0.0055932,0.01095,0.0069865,23:08.3
-0.023088,-0.00091903,0.0054978,0.010845,0.0069137,23:08.3
-0.022957,-0.00089969,0.0054824,0.010817,0.0068898,23:08.3
-0.022551,-0.00084102,0.0054187,0.010665,0.0067748,23:08.3
-0.02221,-0.0008526,0.0053235,0.01051,0.0066289,23:08.3
-0.021784,-0.00088636,0.0052303,0.010339,0.0064778,23:08.3
-0.02142,-0.00090244,0.0051557,0.010169,0.0063456,23:08.3
-0.021257,-0.00094115,0.0050847,0.010081,0.0062702,23:08.3
-0.021057,-0.0008849,0.0050512,0.010053,0.0062634,23:08.3
-0.020984,-0.0007706,0.0050671,0.010079,0.0063129,23:08.3
-0.020977,-0.00075117,0.0050398,0.010063,0.0063244,23:08.3
-0.020922,-0.00077858,0.0049909,0.010017,0.006299,23:08.3
-0.020839,-0.00084591,0.0049214,0.0099145,0.006203,23:08.3
-0.020604,-0.00093691,0.0048178,0.0097232,0.0060376,23:08.3
-0.020191,-0.00095236,0.0047407,0.0095759,0.0059137,23:08.3
-0.019753,-0.00091598,0.0046784,0.0094529,0.0058044,23:08.3
-0.019396,-0.00088582,0.0046132,0.009312,0.0056965,23:08.3
-0.019172,-0.0008658,0.004564,0.0092291,0.0056465,23:08.3
-0.019103,-0.00084501,0.0045323,0.0091963,0.0056413,23:08.3
-0.019112,-0.00083433,0.0045127,0.0091836,0.00565,23:08.3
-0.019102,-0.00079682,0.0044998,0.0091863,0.0056637,23:08.3
-0.018969,-0.00069009,0.0044984,0.0091786,0.0056919,23:08.3
-0.018677,-0.00059634,0.0044879,0.0091253,0.0056764,23:08.3
-0.018321,-0.0005658,0.0044432,0.0090097,0.0055754,23:08.3
-0.017964,-0.00060345,0.0043684,0.0088363,0.005428,23:08.3
-0.017641,-0.00069993,0.004275,0.0086421,0.0052579,23:08.3
-0.01743,-0.00079242,0.0041918,0.008481,0.0051174,23:08.3
-0.017337,-0.00085108,0.0041483,0.008378,0.0050435,23:08.3
-0.017279,-0.0008333,0.0041477,0.0083488,0.0050425,23:08.3
-0.017242,-0.00076002,0.0041639,0.0083588,0.0050911,23:08.3
-0.017273,-0.00072892,0.0041616,0.0083466,0.0051112,23:08.3
-0.017257,-0.00075391,0.0041263,0.0082923,0.0050839,23:08.3
-0.017088,-0.00079655,0.0040715,0.0081878,0.0050141,23:08.3
-0.016827,-0.00079221,0.0040229,0.0080558,0.0049101,23:08.3
-0.016441,-0.00073768,0.0039799,0.0079181,0.0048033,23:08.3
-0.015985,-0.00068623,0.0039419,0.0077833,0.0047022,23:08.3
-0.015629,-0.00061363,0.0039271,0.0076894,0.0046407,23:08.3
-0.015416,-0.00055316,0.0039168,0.0076397,0.0046144,23:08.3
-0.01539,-0.00056404,0.003898,0.0076163,0.004602,23:08.3
-0.015495,-0.00058426,0.0038936,0.0076171,0.0046226,23:08.3
-0.015578,-0.0006092,0.0038803,0.0076044,0.0046291,23:08.3
-0.015601,-0.00068271,0.0038331,0.0075545,0.0045896,23:08.3
-0.0155,-0.00072371,0.0037828,0.0074684,0.004523,23:08.3
-0.015187,-0.00068487,0.0037435,0.0073489,0.0044295,23:08.3
-0.014776,-0.00064792,0.0037039,0.0072273,0.0043286,23:08.3
-0.014414,-0.00062937,0.0036644,0.0071112,0.0042267,23:08.3
-0.014106,-0.00059339,0.0036359,0.0070154,0.0041423,23:08.3
-0.013939,-0.00055519,0.0036234,0.0069703,0.0041181,23:08.3
-0.013915,-0.0004961,0.0036319,0.006969,0.0041451,23:08.3
-0.01389,-0.00039968,0.0036681,0.0070076,0.0042049,23:08.3
-0.013875,-0.00031237,0.0036994,0.0070496,0.0042697,23:08.4
-0.013866,-0.00029024,0.003688,0.0070267,0.0042648,23:08.4
-0.01377,-0.00035229,0.0036348,0.0069228,0.0041782,23:08.4
-0.01362,-0.00047207,0.0035535,0.0067594,0.0040606,23:08.4
-0.013414,-0.00059926,0.0034664,0.0065653,0.0039136,23:08.4
-0.013094,-0.00062575,0.0034062,0.0064004,0.0037807,23:08.4
-0.012795,-0.00054076,0.0033963,0.0063064,0.0037308,23:08.4
-0.012662,-0.00047996,0.0034132,0.0062624,0.0037318,23:08.4
-0.012668,-0.0004635,0.0034182,0.0062424,0.003756,23:08.4
-0.012767,-0.00046256,0.0034237,0.0062323,0.0037967,23:08.4
-0.012913,-0.00049495,0.0034313,0.0062193,0.0038191,23:08.4
-0.01294,-0.00052194,0.003414,0.0061772,0.0038132,23:08.4
-0.012745,-0.00048909,0.0033987,0.006097,0.0037818,23:08.4
-0.012444,-0.00039324,0.0033936,0.0059962,0.0037224,23:08.4
-0.012087,-0.00031011,0.0033592,0.0058684,0.003639,23:08.4
-0.011725,-0.00028584,0.0033174,0.0057235,0.0035484,23:08.4
-0.011515,-0.00027579,0.0032966,0.0056126,0.0034838,23:08.4
-0.011446,-0.00026809,0.0032854,0.0055667,0.0034684,23:08.4
-0.011508,-0.00028803,0.0032852,0.0055484,0.003493,23:08.4
-0.011684,-0.00030852,0.0032959,0.0055339,0.003538,23:08.4
-0.011803,-0.0003142,0.0033029,0.0055333,0.0035729,23:08.4
-0.011873,-0.00037917,0.0032832,0.0054899,0.0035568,23:08.4
-0.011874,-0.00046367,0.0032421,0.0053798,0.0034897,23:08.4
-0.011617,-0.00044009,0.0032107,0.0052631,0.003409,23:08.4
-0.01123,-0.00037198,0.0031941,0.0051621,0.0033368,23:08.4
-0.010925,-0.00034152,0.0031774,0.005059,0.0032615,23:08.4
-0.010706,-0.00031787,0.0031557,0.0049693,0.0031987,23:08.4
-0.010641,-0.00030707,0.0031487,0.0049337,0.0031899,23:08.4
-0.010752,-0.00031625,0.0031595,0.004943,0.0032174,23:08.4
-0.01088,-0.00030885,0.0031706,0.0049623,0.0032658,23:08.4
-0.010968,-0.00028184,0.0031786,0.0049843,0.0033295,23:08.4
-0.011001,-0.00026241,0.0031716,0.0049836,0.00334,23:08.4
-0.010816,-0.00020776,0.0031552,0.0049422,0.0033048,23:08.4
-0.010429,-8.80E-05,0.0031443,0.0048891,0.0032769,23:08.4
-0.010059,-8.74E-06,0.0031174,0.0048122,0.0032038,23:08.4
-0.0097976,-3.68E-05,0.0030629,0.0047026,0.0030907,23:08.4
-0.009667,-9.84E-05,0.0030063,0.0046159,0.0030116,23:08.4
-0.009699,-0.00016381,0.0029712,0.0045752,0.002971,23:08.4
-0.0098333,-0.00022585,0.0029565,0.0045873,0.0029916,23:08.4
-0.0098883,-0.00013628,0.0029865,0.0046689,0.0030928,23:08.4
-0.0098497,5.74E-05,0.0030448,0.0047573,0.0031905,23:08.4
-0.0098798,5.44E-05,0.0030264,0.0047601,0.0031846,23:08.4
-0.0098992,-0.00010846,0.002939,0.0046777,0.0030885,23:08.4
-0.0098065,-0.00024062,0.0028469,0.0045474,0.0029566,23:08.4
-0.0096274,-0.00035718,0.0027432,0.0044073,0.0028048,23:08.4
-0.0093419,-0.00038221,0.0026799,0.0043362,0.0027044,23:08.4
-0.0090863,-0.00030427,0.0026688,0.0043336,0.0026798,23:08.4
-0.0089991,-0.00026051,0.0026556,0.0043433,0.0026808,23:08.4
-0.0090263,-0.00021216,0.002668,0.0043971,0.0027304,23:08.4
-0.0091356,-0.00015054,0.0026897,0.0044839,0.0028039,23:08.4
-0.009216,-0.00011812,0.0026852,0.0045419,0.0028539,23:08.5
-0.0091173,-2.23E-05,0.0026971,0.0045912,0.002895,23:08.5
-0.0089459,4.70E-05,0.00268,0.0045831,0.0028663,23:08.5
-0.008749,-1.39E-05,0.0026019,0.0044747,0.0027559,23:08.5
-0.0084465,-4.92E-05,0.0025458,0.0043848,0.002649,23:08.5
-0.0081911,-6.82E-05,0.0024974,0.0043115,0.0025433,23:08.5
-0.0080506,-0.00012184,0.0024402,0.0042232,0.0024605,23:08.5
-0.0079955,-0.0001007,0.002435,0.0042325,0.002467,23:08.5
-0.0081271,-9.50E-05,0.0024471,0.0042948,0.0025085,23:08.5
-0.0082963,-0.00012972,0.0024458,0.0043283,0.0025459,23:08.5
-0.0083796,-0.00010728,0.0024516,0.0043804,0.0025962,23:08.5
-0.0084765,-0.00014992,0.0024254,0.0044026,0.0025826,23:08.5
-0.0084316,-0.00024788,0.0023551,0.0043397,0.0024904,23:08.5
-0.0081893,-0.00028431,0.0022853,0.0042463,0.0023993,23:08.5
-0.0079239,-0.0003177,0.0022209,0.0041453,0.0022966,23:08.5
-0.0076465,-0.00034069,0.0021581,0.0040531,0.0021918,23:08.5
-0.0074233,-0.00029118,0.002128,0.0040247,0.0021539,23:08.5
-0.007363,-0.00021043,0.0021302,0.0040559,0.0021753,23:08.5
-0.0074264,-0.00017011,0.0021329,0.0041176,0.0022288,23:08.5
-0.007539,-0.00014537,0.0021358,0.0042021,0.0023059,23:08.5
-0.0076163,-7.38E-05,0.0021461,0.0042771,0.0023697,23:08.5
-0.007548,8.48E-06,0.0021477,0.0043258,0.0023942,23:08.5
-0.0073672,2.59E-05,0.0021093,0.0043233,0.0023588,23:08.5
-0.0072206,-6.13E-05,0.0020181,0.0042236,0.0022389,23:08.5
-0.0070331,-0.00017143,0.0019192,0.0040901,0.0020909,23:08.5
-0.0067995,-0.00023699,0.0018326,0.0039993,0.0019758,23:08.5
-0.0067223,-0.00031678,0.0017549,0.003942,0.0018957,23:08.5
-0.0067592,-0.00036638,0.0017251,0.0039487,0.001885,23:08.5
-0.0068535,-0.0003446,0.0017354,0.0040339,0.0019438,23:08.5
-0.0070336,-0.00032428,0.001744,0.0041315,0.0020085,23:08.5
-0.0071588,-0.00032652,0.0017327,0.0042015,0.0020527,23:08.5
-0.0071162,-0.00028573,0.0017143,0.0042492,0.0020804,23:08.5
-0.0069113,-0.0001796,0.0016974,0.0042588,0.0020621,23:08.5
-0.0065911,-0.00011808,0.0016468,0.0042024,0.0019804,23:08.5
-0.006248,-0.00010835,0.0015833,0.0041306,0.0018812,23:08.5
-0.0059771,-9.64E-05,0.0015313,0.0040896,0.0017932,23:08.5
-0.0057863,-7.69E-05,0.0014813,0.004064,0.001749,23:08.5
-0.0057304,-2.15E-05,0.0014711,0.0041033,0.0017878,23:08.5
-0.0058889,-2.15E-05,0.0014725,0.0041957,0.0018444,23:08.5
-0.0061123,-9.54E-05,0.0014268,0.0042468,0.0018613,23:08.5
-0.0063342,-0.0002092,0.0013624,0.0042677,0.0018624,23:08.5
-0.0065543,-0.00039663,0.0012952,0.0042471,0.0018116,23:08.5
-0.0065422,-0.00053506,0.0012068,0.0041688,0.0016966,23:08.5
-0.0062534,-0.00053613,0.0011297,0.0041168,0.0016121,23:08.5
-0.0058746,-0.00045962,0.0010885,0.0040777,0.0015485,23:08.5
-0.0055438,-0.00039915,0.0010451,0.0040185,0.001462,23:08.5
-0.0053693,-0.00037384,0.0010028,0.0040113,0.0014267,23:08.5
-0.0053695,-0.00032725,0.00098975,0.0040651,0.0014521,23:08.5
-0.0054716,-0.0002921,0.00098735,0.0041486,0.0015091,23:08.5
-0.0056337,-0.00029232,0.00098053,0.0042449,0.0015885,23:08.5
-0.0057926,-0.00030122,0.0009635,0.0043171,0.0016322,23:08.6
-0.0057979,-0.00029798,0.00093576,0.0043524,0.0016343,23:08.6
-0.00564,-0.00029786,0.00088647,0.0043331,0.0015901,23:08.6
-0.0053811,-0.0003249,0.00080758,0.0042575,0.0014812,23:08.6
-0.0050461,-0.00032534,0.00073231,0.0041766,0.0013716,23:08.6
-0.0047878,-0.00030806,0.00066745,0.0041224,0.0012945,23:08.6
-0.0046772,-0.00031252,0.00062014,0.004108,0.0012451,23:08.6
-0.0046956,-0.0003121,0.00060709,0.0041424,0.0012479,23:08.6
-0.0048712,-0.00032523,0.00059559,0.0042138,0.0013016,23:08.6
-0.0051142,-0.00036682,0.00057599,0.0042941,0.0013608,23:08.6
-0.0052411,-0.00037861,0.00055583,0.0043534,0.0013989,23:08.6
-0.0052149,-0.00036433,0.0005298,0.0043834,0.0014131,23:08.6
-0.0050969,-0.00035913,0.00048451,0.00436,0.0013664,23:08.6
-0.0047975,-0.00031831,0.00041664,0.0042834,0.0012734,23:08.6
-0.004411,-0.00028074,0.00036152,0.0042222,0.001184,23:08.6
-0.0041742,-0.0002716,0.0003078,0.0041786,0.0010978,23:08.6
-0.0040397,-0.00027612,0.00024874,0.0041386,0.0010523,23:08.6
-0.0040611,-0.00030262,0.00022224,0.0041677,0.0010754,23:08.6
-0.0042791,-0.0002836,0.00021445,0.0042495,0.0011266,23:08.6
-0.0044521,-0.00033684,0.00020674,0.004326,0.0011858,23:08.6
-0.0045272,-0.00039794,0.00019443,0.0044082,0.0012472,23:08.6
-0.0045299,-0.0002649,0.00016968,0.0044442,0.0012564,23:08.6
-0.0043524,-0.00019372,0.00012669,0.0043974,0.0011939,23:08.6
-0.0040398,-0.00022052,5.23E-05,0.0043363,0.0011157,23:08.6
-0.0037235,-0.00019375,-2.71E-05,0.0042594,0.0010192,23:08.6
-0.0034498,-0.00020052,-9.26E-05,0.0041708,0.00091226,23:08.6
-0.0033056,-0.00021104,-0.00015029,0.0041442,0.00086929,23:08.6
-0.0033658,-0.00021593,-0.00017353,0.0041767,0.00088927,23:08.6
-0.0035296,-0.00022279,-0.00018298,0.0042494,0.00094299,23:08.6
-0.0036983,-0.00019855,-0.00020608,0.0043422,0.0010178,23:08.6
-0.0038264,-0.00018085,-0.00021939,0.004398,0.0010686,23:08.6
-0.0037892,-0.00015285,-0.00025347,0.004403,0.0010708,23:08.6
-0.0035686,-0.00011202,-0.00032386,0.0043581,0.0010216,23:08.6
-0.0032236,-0.00010002,-0.00039885,0.0042621,0.00091231,23:08.6
-0.0028288,-0.00010647,-0.00048177,0.0041446,0.00078415,23:08.6
-0.0025656,-0.00010698,-0.0005863,0.0040559,0.00068547,23:08.6
-0.002447,-0.00012817,-0.00069236,0.0040162,0.00061992,23:08.6
-0.0024002,-0.00015868,-0.00074688,0.0040128,0.0006176,23:08.6
-0.0024736,-0.00014237,-0.00076385,0.0040584,0.00067367,23:08.6
-0.0026125,-0.00011527,-0.0008048,0.0041252,0.00072367,23:08.6
-0.0026542,-9.87E-05,-0.00086893,0.0041534,0.00075135,23:08.6
-0.002565,-8.15E-05,-0.00093525,0.0041394,0.0007436,23:08.6
-0.0023863,-8.27E-05,-0.0010095,0.0040706,0.00067189,23:08.6
-0.002059,-6.83E-05,-0.0010968,0.0039522,0.00055747,23:08.6
-0.0016723,-5.57E-05,-0.0011717,0.0038432,0.00044134,23:08.6
-0.0013917,-5.68E-05,-0.0012267,0.0037716,0.00035524,23:08.6
-0.0012072,-1.82E-05,-0.0012623,0.0037479,0.00032616,23:08.6
-0.0012125,2.96E-06,-0.0012638,0.0037847,0.00035945,23:08.6
-0.0014178,-1.32E-05,-0.0012681,0.0038547,0.00041932,23:08.6
-0.0016031,-2.21E-05,-0.0012787,0.0039143,0.0004736,23:08.6
-0.0017259,-5.21E-05,-0.0012733,0.0039518,0.00050814,23:08.7
-0.0017759,-8.68E-05,-0.0012998,0.0039388,0.00047522,23:08.7
-0.0015952,-9.21E-05,-0.001347,0.0038665,0.00038601,23:08.7
-0.0012409,-7.91E-05,-0.0013726,0.0037863,0.00030125,23:08.7
-0.00091499,-6.18E-05,-0.0014087,0.003696,0.00020064,23:08.7
-0.00065457,-5.71E-05,-0.0014479,0.0036059,0.0001015,23:08.7
-0.00053754,-5.65E-05,-0.0014572,0.003579,7.24E-05,23:08.7
-0.00063327,-5.50E-05,-0.0014436,0.003616,0.00010339,23:08.7
-0.0008042,-5.99E-05,-0.0014161,0.00368,0.00016603,23:08.7
-0.00098183,-6.60E-05,-0.0013931,0.0037392,0.00023955,23:08.7
-0.0011286,-7.23E-05,-0.001379,0.0037718,0.00027687,23:08.7
-0.0011047,-7.14E-05,-0.0013776,0.0037563,0.00025786,23:08.7
-0.00090538,-6.17E-05,-0.0014078,0.0036826,0.00020248,23:08.7
-0.00059163,-4.71E-05,-0.0014521,0.0035706,0.00010886,23:08.7
-0.00024755,-2.77E-05,-0.0014926,0.0034477,-7.14E-06,23:08.7
-3.24E-05,-2.23E-05,-0.0015245,0.0033588,-8.73E-05,23:08.7
3.58E-05,-3.00E-05,-0.0015369,0.0033179,-0.00011213,23:08.7
-1.41E-05,-2.93E-05,-0.0015304,0.0033137,-7.91E-05,23:08.7
-0.00019499,-2.48E-05,-0.0015023,0.0033649,6.82E-07,23:08.7
-0.00040948,-1.83E-05,-0.0014719,0.0034192,7.20E-05,23:08.7
-0.00050718,-7.78E-06,-0.0014697,0.0034218,0.00010752,23:08.7
-0.00044821,-3.01E-06,-0.0014774,0.0033938,0.0001052,23:08.7
-0.00028448,1.02E-05,-0.0014984,0.0033024,4.58E-05,23:08.7
1.73E-05,3.66E-05,-0.0015493,0.0031576,-5.78E-05,23:08.7
0.00038236,5.68E-05,-0.0015882,0.003028,-0.00015545,23:08.7
0.00061491,6.92E-05,-0.0016111,0.0029231,-0.00022273,23:08.7
0.00071762,7.73E-05,-0.0016284,0.002866,-0.00024575,23:08.7
0.00066916,8.93E-05,-0.0016115,0.0028682,-0.00020571,23:08.7
0.00045125,0.00010531,-0.001582,0.0028994,-0.00013059,23:08.7
0.00026525,0.00011701,-0.0015579,0.0029248,-6.17E-05,23:08.7
0.00018773,0.00013066,-0.0015355,0.0029273,-1.19E-05,23:08.7
0.00019629,0.00014519,-0.0015394,0.0028795,-1.88E-05,23:08.7
0.00040385,0.00017057,-0.0015622,0.0027587,-9.08E-05,23:08.7
0.00076225,0.00020517,-0.0015842,0.0026257,-0.0001706,23:08.7
0.0010797,0.00022321,-0.0016096,0.00249,-0.0002513,23:08.7
0.0013107,0.00023181,-0.0016299,0.0023481,-0.00033789,23:08.7
0.0013722,0.00021958,-0.0016315,0.0022629,-0.00037146,23:08.7
0.0012241,0.0001861,-0.0016083,0.0022381,-0.0003363,23:08.7
0.0010364,0.00017326,-0.0015572,0.0022764,-0.00028517,23:08.7
0.00085085,0.00016105,-0.0015013,0.0023291,-0.00025006,23:08.7
0.00069949,0.00013724,-0.0014652,0.0023375,-0.00025444,23:08.7
0.00075153,0.00012472,-0.0014396,0.0023125,-0.00030989,23:08.7
0.0009845,0.00010695,-0.0014226,0.0022096,-0.00039261,23:08.7
0.0012918,7.79E-05,-0.0014261,0.00208,-0.00052084,23:08.7
0.0016111,5.84E-05,-0.0014455,0.0019755,-0.00065695,23:08.7
0.001843,9.32E-05,-0.0014444,0.0018511,-0.00071765,23:08.7
0.0019248,0.00017546,-0.0014069,0.0017838,-0.00073317,23:08.7
0.0018638,0.00025878,-0.0013903,0.0017701,-0.00067505,23:08.7
0.0016989,0.00036153,-0.0014241,0.0017717,-0.00052083,23:08.7
0.0014609,0.00047378,-0.0014869,0.0018039,-0.00037055,23:08.7
0.0013478,0.00062641,-0.0015724,0.0017675,-0.0002287,23:08.8
0.0014604,0.00086456,-0.0016679,0.0016206,-9.11E-05,23:08.8
0.0016286,0.0011131,-0.0017747,0.0013457,-8.94E-06,23:08.8
0.0019706,0.0013542,-0.0018725,0.0009412,2.79E-05,23:08.8
0.0024486,0.0015795,-0.001897,0.000466,5.77E-05,23:08.8
0.0027066,0.0017559,-0.0018774,2.02E-05,0.00010823,23:08.8
0.0028118,0.0018845,-0.0018601,-0.00030424,0.0001654,23:08.8
0.0028307,0.0019417,-0.0017947,-0.00058194,0.0002391,23:08.8
0.0026895,0.0019436,-0.001684,-0.00083126,0.00032666,23:08.8
0.0025377,0.001821,-0.0015805,-0.0010627,0.00034943,23:08.8
0.0024482,0.0016113,-0.0015194,-0.0013428,0.00032318,23:08.8
0.0024462,0.0015061,-0.0015523,-0.0016987,0.00027349,23:08.8
0.0025895,0.0013304,-0.0016436,-0.0021285,0.00014424,23:08.8
0.00277,0.00095303,-0.0017586,-0.0024958,-2.61E-05,23:08.8
0.0028174,0.00060265,-0.0019943,-0.0028361,-0.00016441,23:08.8
0.0027163,0.00034991,-0.0022686,-0.0032041,-0.00025671,23:08.8
0.0025215,0.00015907,-0.0023552,-0.0035043,-0.00031488,23:08.8
0.0022589,5.03E-05,-0.0022935,-0.0037785,-0.00036862,23:08.8
0.0020319,1.91E-05,-0.0021892,-0.0040423,-0.00039905,23:08.8
0.0018688,4.83E-05,-0.00205,-0.0042888,-0.00038523,23:08.8
0.0017507,7.84E-05,-0.0019656,-0.0045445,-0.00041099,23:08.8
0.0017945,6.51E-05,-0.0019577,-0.0048678,-0.00051079,23:08.8
0.0019923,3.14E-05,-0.0019603,-0.0052767,-0.0006046,23:08.8
0.0022729,3.02E-05,-0.0019799,-0.005715,-0.00070206,23:08.8
0.0025961,6.32E-05,-0.0020323,-0.0061859,-0.0008203,23:08.8
0.0027945,7.88E-05,-0.0020837,-0.0065923,-0.00088353,23:08.8
0.0028099,8.99E-05,-0.0020849,-0.0068412,-0.00088371,23:08.8
0.0026794,9.46E-05,-0.0020415,-0.0069769,-0.00084963,23:08.8
0.0023988,3.91E-05,-0.0019646,-0.0070385,-0.00079105,23:08.8
0.0020712,-4.76E-05,-0.0018523,-0.0070565,-0.00073919,23:08.8
0.0018469,-0.00014397,-0.0017635,-0.0070767,-0.00072396,23:08.8
0.0017981,-0.00024014,-0.0017173,-0.0071198,-0.00075595,23:08.8
0.0018943,-0.00028645,-0.001678,-0.0071596,-0.00083661,23:08.8
0.0021163,-0.00030498,-0.0016443,-0.0071971,-0.00094916,23:08.8
0.0023977,-0.00031776,-0.0016113,-0.0071896,-0.0010392,23:08.8
0.0025559,-0.00031043,-0.0015772,-0.0071041,-0.0010859,23:08.8
0.0025652,-0.0002907,-0.0015437,-0.0069891,-0.0010915,23:08.8
0.0024454,-0.00027699,-0.0014889,-0.0068146,-0.0010303,23:08.8
0.0022101,-0.00024922,-0.0014093,-0.006581,-0.00092897,23:08.8
0.002042,-0.00017398,-0.0013316,-0.0063413,-0.00083276,23:08.8
0.00197,-0.00013831,-0.0012883,-0.006141,-0.00077383,23:08.8
0.0019455,-0.0001729,-0.0013015,-0.0060305,-0.00079792,23:08.8
0.0020908,-0.0001955,-0.001356,-0.0059718,-0.00088524,23:08.8
0.0023494,-0.00022192,-0.0014134,-0.0059295,-0.00098538,23:08.8
0.00257,-0.00024629,-0.0014616,-0.0058915,-0.0010785,23:08.8
0.0027245,-0.0002461,-0.0014952,-0.0058187,-0.0011285,23:08.8
0.0026968,-0.00025221,-0.0014998,-0.0056923,-0.0011089,23:08.8
0.0024839,-0.00025929,-0.0014843,-0.0055202,-0.0010447,23:08.8
0.002243,-0.00028191,-0.0014549,-0.0053356,-0.00096587,23:08.8
0.0019991,-0.00029945,-0.0014186,-0.0051507,-0.00088231,23:08.8
0.0018346,-0.00028754,-0.0013955,-0.0050049,-0.00084293,23:08.9
0.001878,-0.00029188,-0.0013964,-0.0049389,-0.00087306,23:08.9
0.0020619,-0.00029626,-0.0014203,-0.0049101,-0.00093066,23:08.9
0.0022946,-0.000294,-0.0014364,-0.0049041,-0.0010174,23:08.9
0.0025364,-0.0003057,-0.0014313,-0.0049057,-0.0011094,23:08.9
0.0026762,-0.00030357,-0.0013965,-0.004855,-0.0011456,23:08.9
0.0026137,-0.00031117,-0.0013218,-0.0047509,-0.0011339,23:08.9
0.0024045,-0.00034178,-0.0012541,-0.0045946,-0.0010743,23:08.9
0.0021316,-0.00035366,-0.0011657,-0.0044022,-0.00098248,23:08.9
0.0018545,-0.00035314,-0.0010303,-0.0042401,-0.00090919,23:08.9
0.001714,-0.0003584,-0.00092472,-0.0041193,-0.00086879,23:08.9
0.0017528,-0.00035554,-0.00084116,-0.0040396,-0.0008779,23:08.9
0.0019347,-0.00034371,-0.00077488,-0.0040167,-0.00093753,23:08.9
0.0022088,-0.00034412,-0.00075159,-0.0040235,-0.0010147,23:08.9
0.0024136,-0.00035489,-0.00069786,-0.0040085,-0.0010848,23:08.9
0.0024983,-0.00035047,-0.00061634,-0.0039494,-0.0011285,23:08.9
0.0024687,-0.00033917,-0.00056707,-0.0038637,-0.0011202,23:08.9
0.0022666,-0.00034522,-0.00049872,-0.0037322,-0.0010461,23:08.9
0.0019699,-0.00035203,-0.0004003,-0.0035605,-0.00094723,23:08.9
0.0017208,-0.00034786,-0.00033079,-0.0034093,-0.00086703,23:08.9
0.0015813,-0.00036478,-0.00028292,-0.0032993,-0.00082286,23:08.9
0.0015646,-0.0003964,-0.00026263,-0.003243,-0.00084879,23:08.9
0.0017099,-0.00040362,-0.0002751,-0.0032349,-0.00092443,23:08.9
0.0019607,-0.00041091,-0.00027774,-0.0032303,-0.0010057,23:08.9
0.0021704,-0.0004258,-0.00028842,-0.0032141,-0.0010864,23:08.9
0.0022963,-0.0004207,-0.0002948,-0.0031886,-0.0011272,23:08.9
0.0022351,-0.0004288,-0.00024476,-0.0031048,-0.0010947,23:08.9
0.0019865,-0.0004413,-0.00017468,-0.0029476,-0.0010127,23:08.9
0.0017473,-0.0004315,-0.00010486,-0.002793,-0.00091726,23:08.9
0.001509,-0.00042883,-3.32E-05,-0.0026611,-0.0008317,23:08.9
0.0013352,-0.00042467,4.52E-06,-0.0025722,-0.000792,23:08.9
0.0013762,-0.00043607,6.79E-06,-0.0025665,-0.00082362,23:08.9
0.0015915,-0.00041291,1.29E-05,-0.0025664,-0.00087487,23:08.9
0.001992,-0.00026301,4.20E-05,-0.0025523,-0.00090751,23:08.9
0.002349,-0.00014115,6.12E-05,-0.0025697,-0.00095476,23:08.9
0.0024321,-0.00016099,7.91E-05,-0.0025722,-0.0010007,23:08.9
0.0023561,-0.00019336,0.00012227,-0.0025286,-0.0009855,23:08.9
0.0021474,-0.00017396,0.00017483,-0.0024285,-0.00090818,23:08.9
0.0019137,-0.00016908,0.00025673,-0.0022889,-0.0008054,23:08.9
0.0016444,-0.00019616,0.00032713,-0.0021743,-0.00072243,23:08.9
0.001504,-0.00018404,0.00034421,-0.0021048,-0.00069672,23:08.9
0.0016401,-0.00015115,0.00033854,-0.0020791,-0.00071916,23:08.9
0.0017873,-0.00013425,0.00028803,-0.0020939,-0.00078507,23:08.9
0.0022125,-0.00010183,0.0002255,-0.0021391,-0.00087373,23:08.9
0.0024279,-7.57E-05,0.00017805,-0.002153,-0.00093438,23:08.9
0.0024753,-5.84E-05,0.00012959,-0.0021143,-0.00096087,23:08.9
0.0026658,-2.08E-05,0.00011899,-0.0020576,-0.00092527,23:08.9
0.0022254,3.07E-05,0.00012927,-0.0019209,-0.00081979,23:08.9
0.0022647,6.90E-05,0.00017358,-0.0017577,-0.00071045,23:08.9
0.0019594,0.00015179,0.00023278,-0.0016062,-0.00061085,23:08.9
0.0017145,0.00023916,0.0002545,-0.0014849,-0.00053582,23:09.0
0.0024338,0.00023183,0.0002581,-0.001488,-0.00055043,23:09.0
0.0013875,0.00028854,0.00019856,-0.0014621,-0.00063492,23:09.0
0.0034022,0.00023822,0.00019991,-0.0015724,-0.00069908,23:09.0
0.0063666,-4.81E-05,0.00029599,-0.0018975,-0.00073396,23:09.0
0.0028803,-0.00010348,0.00027925,-0.0019421,-0.00076221,23:09.0
0.0011389,2.45E-06,0.00024392,-0.0018148,-0.00072621,23:09.0
0.0022186,-1.81E-07,0.00027106,-0.0017312,-0.00061882,23:09.0
0.0012894,7.00E-05,0.00030855,-0.001541,-0.00051082,23:09.0
0.0013329,0.0001506,0.0003677,-0.0013904,-0.00040984,23:09.0
0.001363,0.00020528,0.00039568,-0.0012994,-0.00033363,23:09.0
0.0012095,0.00026833,0.00039122,-0.0012445,-0.00035063,23:09.0
0.0015546,0.00022062,0.00034079,-0.0013042,-0.00043005,23:09.0
0.0017941,0.00029861,0.00033594,-0.0013135,-0.00049956,23:09.0
0.0026941,0.00054455,0.00043802,-0.0012532,-0.00055725,23:09.0
0.0029391,0.00060969,0.00048532,-0.0012519,-0.00057615,23:09.0
0.0026545,0.00058654,0.00051982,-0.0012241,-0.00053131,23:09.0
0.002587,0.0006181,0.0006117,-0.0011212,-0.00044359,23:09.0
0.0022329,0.00061546,0.0006874,-0.0010189,-0.00032813,23:09.0
0.0019957,0.00061034,0.00074567,-0.00093656,-0.0002469,23:09.0
0.0019046,0.00061166,0.00078372,-0.00090131,-0.00022052,23:09.0
0.0019638,0.00062374,0.00079982,-0.00093035,-0.00022093,23:09.0
0.0022302,0.0006486,0.00078815,-0.0009948,-0.00029219,23:09.0
0.0024948,0.0006453,0.00075325,-0.0010809,-0.00039536,23:09.0
0.0026947,0.00062923,0.0007187,-0.0011507,-0.00045783,23:09.0
0.002729,0.00061138,0.00069031,-0.0011767,-0.00049708,23:09.0
0.0026407,0.00057872,0.00069626,-0.0011542,-0.0004689,23:09.0
0.0023965,0.00053536,0.00073348,-0.0010659,-0.00037544,23:09.0
0.0020579,0.00051086,0.00076925,-0.00095765,-0.00030236,23:09.0
0.0018279,0.00048243,0.00078557,-0.00089,-0.00024429,23:09.0
0.0017074,0.0004257,0.00077847,-0.00086291,-0.00021706,23:09.0
0.00173,0.00039828,0.00074193,-0.00088582,-0.00026529,23:09.0
0.0019468,0.00039454,0.00067753,-0.00095368,-0.00035197,23:09.0
0.0022421,0.00037684,0.0006234,-0.0010208,-0.00044125,23:09.0
0.0024616,0.00036324,0.00057683,-0.0010744,-0.00051165,23:09.0
0.0025616,0.00035513,0.00052943,-0.0011,-0.00054213,23:09.0
0.0024807,0.00034343,0.00052105,-0.0010528,-0.00051616,23:09.0
0.0022015,0.00032321,0.00052833,-0.0009603,-0.00043605,23:09.0
0.0019258,0.00029897,0.00052304,-0.0008771,-0.00035307,23:09.0
0.0017273,0.0002808,0.00052526,-0.00079802,-0.00028369,23:09.0
0.0015816,0.00025692,0.00048212,-0.00076589,-0.00025886,23:09.0
0.0016562,0.00022889,0.0003831,-0.00080996,-0.000315,23:09.0
0.001931,0.00022534,0.00029685,-0.00086847,-0.00038455,23:09.0
0.0022061,0.00025272,0.00019761,-0.00092947,-0.00045322,23:09.0
0.002445,0.00027519,8.35E-05,-0.00098542,-0.0005303,23:09.0
0.0025322,0.00027627,4.40E-06,-0.00099178,-0.00055098,23:09.0
0.0023773,0.00026206,-4.78E-05,-0.00093906,-0.0005151,23:09.0
0.002132,0.0002271,-9.27E-05,-0.00083694,-0.00043914,23:09.0
0.0018536,0.00021468,-0.00014341,-0.00072383,-0.00032943,23:09.0
0.0015804,0.00023205,-0.00018534,-0.00064147,-0.00025813,23:09.0
0.0014615,0.00021464,-0.00024088,-0.00060781,-0.00025058,23:09.1
0.0015236,0.00018771,-0.0003301,-0.00062024,-0.00027161,23:09.1
0.0017272,0.00018465,-0.00040981,-0.0006714,-0.00034483,23:09.1
0.0019758,0.00017917,-0.00048538,-0.00075112,-0.00045111,23:09.1
0.0021321,0.00017597,-0.00053758,-0.00079187,-0.0005082,23:09.1
0.002167,0.00017433,-0.00053856,-0.00076696,-0.00052205,23:09.1
0.0020541,0.00017764,-0.00051207,-0.00071044,-0.00047856,23:09.1
0.0017799,0.00018908,-0.00045325,-0.00060561,-0.00036554,23:09.1
0.0014464,0.00018653,-0.0003866,-0.00048052,-0.00027683,23:09.1
0.0012095,0.00018394,-0.00033617,-0.00039632,-0.00021607,23:09.1
0.001134,0.00019595,-0.00030101,-0.00035138,-0.00016994,23:09.1
0.0011783,0.00020206,-0.00030512,-0.00035868,-0.00020519,23:09.1
0.0013774,0.0001993,-0.00032679,-0.00041962,-0.00029642,23:09.1
0.0016622,0.00020061,-0.00033494,-0.00048447,-0.00038023,23:09.1
0.0018284,0.00019877,-0.00034461,-0.00052536,-0.00043872,23:09.1
0.0018742,0.00018137,-0.00034458,-0.00052801,-0.00046162,23:09.1
0.001752,0.00015268,-0.00030368,-0.00047029,-0.00042411,23:09.1
0.0014215,0.00013883,-0.00024071,-0.00036111,-0.00032757,23:09.1
0.0011634,0.00014766,-0.00018131,-0.00024578,-0.0002326,23:09.1
0.0010051,0.00013447,-0.00012999,-0.00016334,-0.00016674,23:09.1
0.00083615,0.00010904,-0.00012163,-0.00013302,-0.00015183,23:09.1
0.00091162,0.00011933,-0.00014797,-0.00016222,-0.00020106,23:09.1
0.0012003,0.0001306,-0.00016295,-0.00022609,-0.00026824,23:09.1
0.0014357,0.00012271,-0.00018643,-0.00029164,-0.00034802,23:09.1
0.0016305,0.00011872,-0.00021584,-0.00034222,-0.00042014,23:09.1
0.0016802,0.00011026,-0.00021625,-0.00034829,-0.00043472,23:09.1
0.0014952,0.00010721,-0.00019551,-0.00029062,-0.00039492,23:09.1
0.0012535,0.00011571,-0.00015364,-0.00018642,-0.0003077,23:09.1
0.00099019,0.00010406,-0.00010895,-7.07E-05,-0.00020524,23:09.1
0.00073319,8.24E-05,-0.00010526,9.20E-06,-0.00014546,23:09.1
0.00066104,7.32E-05,-0.00013393,2.92E-05,-0.00013421,23:09.1
0.00077803,7.26E-05,-0.00017069,4.48E-06,-0.00015436,23:09.1
0.0010142,8.71E-05,-0.00021868,-5.94E-05,-0.00022809,23:09.1
0.0012888,9.43E-05,-0.00026732,-0.00013933,-0.00032927,23:09.1
0.0014493,8.38E-05,-0.00028879,-0.00018436,-0.00038159,23:09.1
0.0014528,7.08E-05,-0.0002827,-0.00018365,-0.00038871,23:09.1
0.0013007,5.08E-05,-0.00026368,-0.00013168,-0.00034385,23:09.1
0.0010154,4.13E-05,-0.00022642,-3.43E-05,-0.00024082,23:09.1
0.00070015,3.21E-05,-0.00017203,5.88E-05,-0.00015253,23:09.1
0.00049038,1.60E-05,-0.00012101,0.0001295,-9.57E-05,23:09.1
0.00044543,2.20E-05,-8.89E-05,0.00016693,-7.27E-05,23:09.1
0.00051481,1.94E-05,-8.91E-05,0.00013742,-0.00011471,23:09.1
0.00072429,-2.57E-08,-0.00012308,5.39E-05,-0.00020002,23:09.1
0.00099027,-8.22E-06,-0.00014169,-2.28E-05,-0.00028742,23:09.1
0.0011371,-2.27E-05,-0.0001193,-6.48E-05,-0.00034173,23:09.1
0.001163,-3.96E-05,-8.54E-05,-7.12E-05,-0.00034597,23:09.1
0.0010096,-5.87E-05,-1.87E-05,-1.01E-05,-0.00029442,23:09.1
0.00069216,-9.02E-05,7.96E-05,9.33E-05,-0.00020478,23:09.1
0.0003989,-9.57E-05,0.00016588,0.00018235,-0.00012022,23:09.1
0.0001942,-8.56E-05,0.00024523,0.00025081,-5.86E-05,23:09.1
0.00010907,-9.92E-05,0.00029457,0.00026764,-4.99E-05,23:09.2
