ecg1,ecg2,ecg3,ecg4,ecg5,tstamp
5.08E-06,4.75E-05,-4.06E-05,0.00035939,-0.00010725,21:15.5
0.00012216,0.00025775,-9.05E-05,0.00041104,-2.87E-05,21:15.5
0.00021374,0.00046541,-0.0001976,0.00029645,8.65E-05,21:15.5
0.00026201,0.00066307,-0.00023078,0.00023315,0.0001916,21:15.5
0.00035304,0.00088913,-0.00026223,8.01E-06,0.00034203,21:15.5
0.00045973,0.0010986,-0.00024515,-0.00020506,0.00045691,21:15.5
0.00054721,0.0012445,-0.00022609,-0.00038787,0.00052883,21:15.5
0.00070155,0.0013659,-0.00024264,-0.00063195,0.00057781,21:15.5
0.00090782,0.0014414,-0.00023018,-0.00083357,0.00057902,21:15.5
0.0011181,0.001437,-0.00020741,-0.00097493,0.00053948,21:15.5
0.0012459,0.0013194,-0.00018964,-0.001109,0.00047485,21:15.5
0.0012735,0.0012115,-0.00019421,-0.0012407,0.00043158,21:15.5
0.0012692,0.0010865,-0.00019738,-0.0012624,0.000412,21:15.5
0.0010929,0.00074723,-0.00016077,-0.0011795,0.00038789,21:15.5
0.00071883,0.00041001,-0.00022228,-0.0010054,0.00039277,21:15.5
0.0002905,0.00018326,-0.00039456,-0.00073304,0.00043438,21:15.5
-9.85E-05,-3.22E-05,-0.00046129,-0.00052891,0.00045163,21:15.5
-0.00027187,-0.00013825,-0.00041576,-0.00041453,0.00039436,21:15.5
-0.0002333,-0.00016644,-0.0003626,-0.00033475,0.00028661,21:15.5
-0.00012136,-0.00014199,-0.00028938,-0.0003039,0.00018669,21:15.6
1.89E-05,-6.82E-05,-0.0002236,-0.00027133,0.00010902,21:15.6
9.77E-05,-5.92E-05,-0.0001814,-0.00023196,4.06E-05,21:15.6
9.93E-05,-6.76E-05,-0.00012481,-0.00018936,-6.28E-06,21:15.6
7.87E-05,-3.36E-05,-6.43E-05,-0.00013995,-7.57E-06,21:15.6
5.09E-05,9.01E-06,-2.07E-06,-9.48E-05,1.32E-05,21:15.6
2.35E-05,4.94E-05,6.45E-05,-3.56E-05,2.40E-05,21:15.6
-5.75E-06,6.26E-05,0.0001023,9.30E-06,3.02E-05,21:15.6
-8.47E-06,5.52E-05,0.0001074,1.60E-05,1.99E-05,21:15.6
3.07E-05,4.40E-05,8.55E-05,-1.77E-07,-9.38E-06,21:15.6
9.97E-05,2.39E-05,4.44E-05,-2.50E-05,-4.11E-05,21:15.6
0.00017044,1.02E-05,1.90E-05,-4.11E-05,-7.18E-05,21:15.6
0.00019622,1.90E-06,1.14E-05,-4.80E-05,-8.82E-05,21:15.6
0.00017701,-7.68E-06,1.27E-05,-4.03E-05,-8.85E-05,21:15.6
0.00011563,-1.23E-05,3.68E-05,-1.17E-05,-7.40E-05,21:15.6
2.49E-05,-1.53E-05,6.84E-05,1.93E-05,-4.68E-05,21:15.6
-4.18E-05,-1.58E-05,9.04E-05,4.54E-05,-2.32E-05,21:15.6
-7.69E-05,-1.60E-05,0.00010724,6.55E-05,-9.90E-06,21:15.6
-8.14E-05,-1.88E-05,0.00010458,6.29E-05,-1.96E-05,21:15.6
-2.79E-05,-1.99E-05,8.19E-05,4.27E-05,-4.75E-05,21:15.6
5.91E-05,-2.18E-05,5.93E-05,2.38E-05,-7.13E-05,21:15.6
0.00013116,-2.35E-05,3.51E-05,2.07E-06,-9.62E-05,21:15.6
0.00017492,-2.12E-05,2.22E-05,-1.30E-05,-0.00011199,21:15.6
0.00016572,-1.85E-05,3.59E-05,-5.60E-06,-0.00010437,21:15.6
9.88E-05,-1.87E-05,5.84E-05,1.50E-05,-8.80E-05,21:15.6
2.70E-05,-1.64E-05,8.29E-05,4.58E-05,-6.36E-05,21:15.6
-3.16E-05,-1.02E-05,0.00010725,7.54E-05,-3.62E-05,21:15.6
-7.91E-05,-1.06E-05,0.0001214,9.07E-05,-2.12E-05,21:15.6
-7.89E-05,-1.17E-05,0.00011989,8.98E-05,-2.13E-05,21:15.6
-1.66E-05,-5.96E-06,9.23E-05,6.44E-05,-4.61E-05,21:15.6
7.33E-05,-4.02E-06,5.89E-05,3.48E-05,-8.07E-05,21:15.6
0.00015489,-1.64E-06,4.46E-05,1.37E-05,-9.73E-05,21:15.6
0.00020436,2.65E-06,3.89E-05,-2.38E-06,-0.00010505,21:15.6
0.00018707,1.72E-06,4.23E-05,6.91E-06,-0.00010307,21:15.6
0.00011971,4.47E-06,6.12E-05,2.89E-05,-8.03E-05,21:15.6
5.20E-05,7.42E-06,8.93E-05,4.75E-05,-5.45E-05,21:15.6
-2.20E-05,3.05E-06,0.00011522,7.15E-05,-3.65E-05,21:15.6
-6.91E-05,7.98E-07,0.00012652,8.77E-05,-2.36E-05,21:15.6
-4.92E-05,3.55E-06,0.00012348,8.60E-05,-2.68E-05,21:15.6
-6.68E-07,3.48E-06,0.00010586,6.39E-05,-5.02E-05,21:15.6
7.85E-05,-1.93E-06,7.65E-05,2.98E-05,-8.04E-05,21:15.6
0.00016903,-4.35E-06,5.35E-05,3.30E-06,-0.00010809,21:15.6
0.00019961,-4.98E-06,4.57E-05,-9.79E-06,-0.000124,21:15.6
0.00018622,-6.35E-06,4.82E-05,-6.39E-06,-0.00012007,21:15.6
0.00013929,1.82E-07,6.85E-05,1.35E-05,-9.70E-05,21:15.6
5.23E-05,4.19E-06,0.00010387,4.20E-05,-6.52E-05,21:15.6
-1.26E-05,7.42E-07,0.00012847,6.72E-05,-4.24E-05,21:15.6
-4.37E-05,2.05E-06,0.00014176,8.01E-05,-3.23E-05,21:15.6
-4.89E-05,3.95E-06,0.00014079,7.36E-05,-3.54E-05,21:15.6
1.10E-05,4.31E-06,0.00011749,4.82E-05,-5.71E-05,21:15.6
0.00010393,4.14E-06,9.72E-05,2.28E-05,-8.53E-05,21:15.7
0.00017378,3.20E-06,7.93E-05,2.16E-06,-0.0001079,21:15.7
0.0002138,1.06E-05,6.35E-05,-1.26E-05,-0.00012073,21:15.7
0.00019592,1.84E-05,7.80E-05,-8.16E-06,-0.00011167,21:15.7
0.00012784,1.44E-05,0.00010821,1.16E-05,-8.97E-05,21:15.7
6.75E-05,1.11E-05,0.00013269,3.82E-05,-7.13E-05,21:15.7
9.98E-06,1.49E-05,0.00015334,6.39E-05,-4.84E-05,21:15.7
-4.48E-05,1.45E-05,0.00016704,7.50E-05,-3.29E-05,21:15.7
-3.57E-05,1.15E-05,0.00016684,6.62E-05,-4.26E-05,21:15.7
3.95E-05,1.54E-05,0.00014543,4.18E-05,-6.45E-05,21:15.7
0.00012516,1.59E-05,0.00011756,1.18E-05,-9.20E-05,21:15.7
0.00020034,9.78E-06,9.58E-05,-1.35E-05,-0.00012,21:15.7
0.00024797,1.36E-05,8.25E-05,-2.47E-05,-0.00012594,21:15.7
0.00022841,1.83E-05,9.57E-05,-1.66E-05,-0.00011345,21:15.7
0.00016384,1.72E-05,0.00011856,4.53E-06,-0.00010208,21:15.7
9.92E-05,2.30E-05,0.00013691,2.94E-05,-7.63E-05,21:15.7
3.07E-05,3.05E-05,0.00016811,5.20E-05,-4.46E-05,21:15.7
-1.19E-06,3.82E-05,0.00018543,6.19E-05,-4.02E-05,21:15.7
2.90E-05,3.82E-05,0.00017994,5.32E-05,-4.63E-05,21:15.7
7.80E-05,3.09E-05,0.00016673,3.15E-05,-6.08E-05,21:15.7
0.00015458,3.51E-05,0.00013473,1.67E-06,-9.35E-05,21:15.7
0.00024141,3.84E-05,0.00011529,-2.30E-05,-0.00011492,21:15.7
0.00027791,4.25E-05,0.00011695,-3.29E-05,-0.0001236,21:15.7
0.00026757,4.63E-05,0.00011625,-3.29E-05,-0.00012247,21:15.7
0.00021625,4.12E-05,0.0001368,-1.51E-05,-9.76E-05,21:15.7
0.00013414,4.55E-05,0.00016741,1.48E-05,-6.99E-05,21:15.7
6.53E-05,4.68E-05,0.00018507,3.66E-05,-5.42E-05,21:15.7
3.34E-05,4.14E-05,0.00019971,4.61E-05,-4.26E-05,21:15.7
4.73E-05,4.17E-05,0.0001978,3.54E-05,-4.71E-05,21:15.7
0.00011674,4.37E-05,0.00017677,8.64E-06,-7.31E-05,21:15.7
0.00021581,5.15E-05,0.00015261,-1.70E-05,-9.58E-05,21:15.7
0.00029275,5.19E-05,0.0001315,-4.01E-05,-0.00011461,21:15.7
0.00033084,4.90E-05,0.00012131,-5.72E-05,-0.00013671,21:15.7
0.00031564,5.19E-05,0.00012915,-5.44E-05,-0.00013238,21:15.7
0.00024899,4.87E-05,0.00015613,-3.04E-05,-0.00010306,21:15.7
0.00018146,5.23E-05,0.00018646,-4.95E-06,-7.94E-05,21:15.7
0.0001175,5.85E-05,0.00020833,1.35E-05,-5.80E-05,21:15.7
6.97E-05,5.52E-05,0.00022589,2.42E-05,-4.61E-05,21:15.7
9.58E-05,5.34E-05,0.0002218,1.46E-05,-5.76E-05,21:15.7
0.000174,5.45E-05,0.0001959,-1.09E-05,-7.58E-05,21:15.7
0.00025394,5.53E-05,0.00017248,-4.24E-05,-9.92E-05,21:15.7
0.00032884,5.58E-05,0.0001454,-7.02E-05,-0.00012693,21:15.7
0.00037173,5.90E-05,0.00013426,-7.83E-05,-0.00013636,21:15.7
0.00034958,5.88E-05,0.00015414,-7.25E-05,-0.00012707,21:15.7
0.00028718,5.33E-05,0.00016942,-5.61E-05,-0.000107,21:15.7
0.00022124,5.56E-05,0.00019225,-2.72E-05,-7.86E-05,21:15.7
0.00015326,5.98E-05,0.00022542,-4.44E-06,-5.60E-05,21:15.7
0.00011992,5.81E-05,0.00023111,3.97E-07,-4.99E-05,21:15.7
0.00015245,5.51E-05,0.00022364,-1.09E-05,-6.05E-05,21:15.7
0.00020761,5.04E-05,0.00020891,-3.48E-05,-8.24E-05,21:15.7
0.0002792,4.77E-05,0.00018057,-6.37E-05,-0.0001056,21:15.8
0.00037009,4.85E-05,0.00016113,-8.77E-05,-0.00012433,21:15.8
0.00041059,4.74E-05,0.0001525,-9.95E-05,-0.00013661,21:15.8
0.00037865,4.71E-05,0.00015876,-9.40E-05,-0.00012959,21:15.8
0.00031933,4.99E-05,0.00018525,-7.33E-05,-0.00010085,21:15.8
0.00024959,5.07E-05,0.00021235,-5.17E-05,-7.36E-05,21:15.8
0.00017769,4.99E-05,0.00023479,-3.57E-05,-5.37E-05,21:15.8
0.00014289,4.74E-05,0.00025077,-2.36E-05,-3.75E-05,21:15.8
0.00017428,4.69E-05,0.00024001,-3.38E-05,-4.61E-05,21:15.8
0.00025181,4.88E-05,0.0002075,-6.71E-05,-7.63E-05,21:15.8
0.00033464,4.21E-05,0.00018536,-9.23E-05,-9.99E-05,21:15.8
0.00040086,3.72E-05,0.00017047,-0.00011181,-0.00011868,21:15.8
0.00042993,3.84E-05,0.00015525,-0.00012728,-0.00012861,21:15.8
0.00039779,3.35E-05,0.00016457,-0.00011651,-0.00011366,21:15.8
0.00032661,2.62E-05,0.00019037,-9.64E-05,-8.86E-05,21:15.8
0.00026179,2.27E-05,0.00021132,-7.91E-05,-6.57E-05,21:15.8
0.00020572,2.49E-05,0.00023122,-5.49E-05,-3.95E-05,21:15.8
0.00016241,2.33E-05,0.00024322,-4.06E-05,-2.34E-05,21:15.8
0.00018487,1.87E-05,0.0002333,-5.20E-05,-3.49E-05,21:15.8
0.00026922,2.14E-05,0.00020514,-7.94E-05,-5.65E-05,21:15.8
0.00034681,1.62E-05,0.00017748,-0.00010946,-7.51E-05,21:15.8
0.00041128,9.41E-06,0.00015492,-0.00013468,-9.68E-05,21:15.8
0.00044831,8.89E-06,0.00014313,-0.00014244,-0.00010247,21:15.8
0.0004132,2.26E-06,0.0001539,-0.00012822,-8.67E-05,21:15.8
0.00034268,1.70E-06,0.00017014,-0.0001051,-6.31E-05,21:15.8
0.00027135,4.43E-06,0.00018721,-8.13E-05,-3.33E-05,21:15.8
0.0001959,-1.56E-07,0.00021172,-5.80E-05,-9.68E-06,21:15.8
0.000161,-2.42E-06,0.00022316,-4.63E-05,3.17E-06,21:15.8
0.00019053,-3.90E-06,0.00020922,-5.56E-05,2.06E-06,21:15.8
0.0002477,-7.14E-06,0.00017727,-7.79E-05,-2.23E-05,21:15.8
0.00031949,-1.20E-05,0.00013987,-0.00010635,-5.06E-05,21:15.8
0.00038824,-1.54E-05,0.00011055,-0.00012746,-6.51E-05,21:15.8
0.00040421,-1.58E-05,9.84E-05,-0.00012869,-6.87E-05,21:15.8
0.00035818,-2.19E-05,0.00010378,-0.00011957,-6.07E-05,21:15.8
0.0002771,-2.61E-05,0.00012031,-9.66E-05,-3.62E-05,21:15.8
0.00019079,-2.15E-05,0.00013975,-6.33E-05,-4.09E-06,21:15.8
0.00011789,-1.97E-05,0.00015402,-3.88E-05,1.83E-05,21:15.8
7.50E-05,-2.18E-05,0.00015828,-2.45E-05,2.71E-05,21:15.8
8.65E-05,-2.33E-05,0.00013777,-2.84E-05,1.65E-05,21:15.8
0.00014479,-2.45E-05,9.89E-05,-4.85E-05,-1.04E-05,21:15.8
0.00021542,-2.56E-05,7.18E-05,-7.03E-05,-3.62E-05,21:15.8
0.00026651,-2.63E-05,4.87E-05,-8.78E-05,-5.74E-05,21:15.8
0.00028184,-2.28E-05,2.81E-05,-8.79E-05,-6.16E-05,21:15.8
0.00024329,-1.79E-05,3.39E-05,-7.32E-05,-4.27E-05,21:15.8
0.00015565,-2.15E-05,5.42E-05,-4.91E-05,-2.19E-05,21:15.8
7.49E-05,-2.44E-05,7.08E-05,-1.50E-05,-1.93E-06,21:15.8
7.19E-06,-1.67E-05,8.42E-05,1.26E-05,2.49E-05,21:15.8
-4.27E-05,-1.27E-05,8.85E-05,2.30E-05,3.84E-05,21:15.8
-1.81E-05,-1.49E-05,7.36E-05,1.11E-05,2.31E-05,21:15.8
5.39E-05,-1.54E-05,3.95E-05,-1.29E-05,-4.32E-06,21:15.8
0.00012049,-1.79E-05,2.60E-06,-3.16E-05,-2.89E-05,21:15.9
0.0001803,-1.92E-05,-1.99E-05,-5.24E-05,-5.01E-05,21:15.9
0.00020548,-1.46E-05,-2.94E-05,-6.38E-05,-6.19E-05,21:15.9
0.00016687,-1.03E-05,-2.75E-05,-4.67E-05,-5.49E-05,21:15.9
9.20E-05,-1.00E-05,-6.28E-06,-1.48E-05,-2.75E-05,21:15.9
1.01E-05,-1.06E-05,1.84E-05,1.40E-05,4.82E-06,21:15.9
-6.56E-05,-9.84E-06,2.77E-05,2.86E-05,2.14E-05,21:15.9
-9.06E-05,-5.92E-06,3.16E-05,3.43E-05,2.39E-05,21:15.9
-5.36E-05,-1.94E-06,2.69E-05,3.29E-05,1.82E-05,21:15.9
1.39E-05,-2.36E-06,1.21E-06,9.71E-06,-4.94E-06,21:15.9
9.90E-05,-6.51E-07,-3.35E-05,-2.31E-05,-3.78E-05,21:15.9
0.00016393,1.93E-06,-5.48E-05,-4.25E-05,-5.83E-05,21:15.9
0.00017692,2.61E-06,-5.74E-05,-4.53E-05,-6.54E-05,21:15.9
0.00014808,7.06E-06,-5.07E-05,-3.62E-05,-5.84E-05,21:15.9
7.88E-05,7.91E-06,-2.86E-05,-1.04E-05,-3.33E-05,21:15.9
-1.13E-05,5.53E-06,-3.78E-07,2.56E-05,-4.87E-06,21:15.9
-7.30E-05,6.89E-06,1.40E-05,4.19E-05,1.74E-05,21:15.9
-9.17E-05,5.85E-06,2.35E-05,4.55E-05,2.79E-05,21:15.9
-6.96E-05,7.91E-06,1.58E-05,3.88E-05,1.70E-05,21:15.9
3.53E-06,1.32E-05,-1.40E-05,6.12E-06,-8.97E-06,21:15.9
9.24E-05,9.92E-06,-3.68E-05,-1.67E-05,-3.62E-05,21:15.9
0.00015418,1.02E-05,-5.51E-05,-2.96E-05,-5.60E-05,21:15.9
0.0001809,1.25E-05,-6.75E-05,-4.70E-05,-6.57E-05,21:15.9
0.00014337,9.37E-06,-5.53E-05,-3.41E-05,-5.53E-05,21:15.9
6.07E-05,1.64E-05,-3.20E-05,-7.06E-06,-2.88E-05,21:15.9
-1.46E-06,1.28E-05,-1.00E-05,1.40E-05,-4.69E-06,21:15.9
-5.26E-05,3.78E-06,1.40E-05,4.05E-05,1.94E-05,21:15.9
-8.65E-05,2.22E-05,2.65E-05,4.98E-05,3.06E-05,21:15.9
-5.01E-05,3.06E-05,1.18E-05,3.28E-05,1.35E-05,21:15.9
3.48E-05,1.98E-05,-1.73E-05,7.45E-06,-1.15E-05,21:15.9
0.00011505,2.37E-05,-4.32E-05,-2.03E-05,-3.58E-05,21:15.9
0.0001763,3.04E-05,-6.03E-05,-4.10E-05,-5.89E-05,21:15.9
0.00020024,2.98E-05,-6.15E-05,-3.82E-05,-6.36E-05,21:15.9
0.00015782,2.89E-05,-4.81E-05,-2.25E-05,-4.74E-05,21:15.9
7.89E-05,2.58E-05,-2.71E-05,-3.23E-06,-2.16E-05,21:15.9
9.42E-06,2.29E-05,7.89E-07,2.54E-05,7.21E-06,21:15.9
-5.11E-05,2.59E-05,2.15E-05,4.28E-05,2.53E-05,21:15.9
-7.81E-05,2.84E-05,2.21E-05,4.47E-05,2.75E-05,21:15.9
-4.18E-05,2.51E-05,1.14E-05,3.63E-05,1.91E-05,21:15.9
4.30E-05,2.36E-05,-1.37E-05,5.78E-06,-7.15E-06,21:15.9
0.00013011,2.47E-05,-4.77E-05,-2.35E-05,-4.03E-05,21:15.9
0.00018076,2.66E-05,-6.23E-05,-3.83E-05,-5.74E-05,21:15.9
0.00019138,2.69E-05,-6.10E-05,-4.59E-05,-5.96E-05,21:15.9
0.00014826,2.28E-05,-5.13E-05,-3.62E-05,-4.82E-05,21:15.9
7.04E-05,2.22E-05,-2.65E-05,-1.43E-05,-2.19E-05,21:15.9
-7.91E-07,2.42E-05,-1.39E-06,1.11E-05,2.99E-06,21:15.9
-6.12E-05,2.45E-05,1.88E-05,3.33E-05,2.08E-05,21:15.9
-8.14E-05,2.79E-05,3.35E-05,4.35E-05,3.25E-05,21:15.9
-4.07E-05,3.30E-05,2.05E-05,3.47E-05,1.85E-05,21:15.9
3.78E-05,3.10E-05,-1.49E-05,3.78E-06,-1.14E-05,21:15.9
0.00012037,2.23E-05,-3.98E-05,-2.50E-05,-3.67E-05,21:16.0
0.00017641,2.18E-05,-5.41E-05,-4.25E-05,-6.32E-05,21:16.0
0.00019262,2.59E-05,-6.29E-05,-5.30E-05,-6.94E-05,21:16.0
0.00014707,2.48E-05,-4.79E-05,-3.64E-05,-4.88E-05,21:16.0
6.29E-05,2.44E-05,-1.93E-05,-5.74E-06,-2.55E-05,21:16.0
-6.48E-07,2.66E-05,4.27E-06,1.70E-05,2.11E-06,21:16.0
-5.55E-05,2.86E-05,2.52E-05,3.98E-05,2.42E-05,21:16.0
-9.17E-05,2.54E-05,2.93E-05,4.78E-05,2.65E-05,21:16.0
-4.74E-05,2.20E-05,1.03E-05,2.91E-05,1.20E-05,21:16.0
3.92E-05,2.09E-05,-1.48E-05,1.05E-06,-1.46E-05,21:16.0
0.00010687,1.83E-05,-3.98E-05,-2.51E-05,-4.20E-05,21:16.0
0.00016855,1.65E-05,-5.88E-05,-4.22E-05,-6.01E-05,21:16.0
0.00018554,1.36E-05,-6.34E-05,-4.40E-05,-6.42E-05,21:16.0
0.00012716,1.30E-05,-5.35E-05,-3.21E-05,-5.47E-05,21:16.0
5.78E-05,1.23E-05,-2.66E-05,-1.30E-05,-2.88E-05,21:16.0
-9.91E-06,1.07E-05,5.23E-06,1.25E-05,4.17E-06,21:16.0
-7.78E-05,1.53E-05,2.20E-05,3.70E-05,2.09E-05,21:16.0
-9.05E-05,1.59E-05,2.29E-05,3.98E-05,2.13E-05,21:16.0
-4.64E-05,1.20E-05,9.14E-06,2.61E-05,8.85E-06,21:16.0
3.11E-05,1.19E-05,-1.55E-05,5.74E-06,-1.63E-05,21:16.0
0.00011713,1.19E-05,-4.20E-05,-2.71E-05,-4.13E-05,21:16.0
0.00016639,1.16E-05,-5.89E-05,-4.94E-05,-6.33E-05,21:16.0
0.00017327,1.31E-05,-5.60E-05,-4.76E-05,-6.85E-05,21:16.0
0.00013441,1.47E-05,-4.46E-05,-3.28E-05,-4.37E-05,21:16.0
5.48E-05,1.23E-05,-2.71E-05,-7.96E-06,-1.83E-05,21:16.0
-2.52E-05,1.03E-05,1.47E-06,1.76E-05,-2.99E-07,21:16.0
-8.10E-05,1.12E-05,2.00E-05,3.73E-05,2.18E-05,21:16.0
-9.00E-05,1.27E-05,2.07E-05,4.28E-05,2.75E-05,21:16.0
-5.07E-05,1.67E-05,7.21E-06,2.65E-05,1.42E-05,21:16.0
2.01E-05,1.47E-05,-2.23E-05,7.58E-07,-1.05E-05,21:16.0
0.00010492,1.23E-05,-4.70E-05,-2.52E-05,-4.11E-05,21:16.0
0.00015706,1.67E-05,-6.12E-05,-4.62E-05,-5.79E-05,21:16.0
0.00016509,1.05E-05,-6.98E-05,-4.87E-05,-6.12E-05,21:16.0
0.00012475,6.95E-06,-5.22E-05,-2.56E-05,-4.64E-05,21:16.0
3.44E-05,1.36E-05,-2.20E-05,-1.53E-07,-1.62E-05,21:16.0
-3.12E-05,8.08E-06,-3.15E-06,1.62E-05,5.25E-06,21:16.0
-7.09E-05,4.96E-06,1.58E-05,3.97E-05,2.48E-05,21:16.0
-0.00010893,1.06E-05,1.97E-05,4.71E-05,3.31E-05,21:16.0
-6.63E-05,8.98E-06,-1.29E-06,2.49E-05,1.36E-05,21:16.0
2.82E-05,8.08E-06,-2.50E-05,-2.85E-08,-1.05E-05,21:16.0
9.77E-05,1.05E-05,-4.71E-05,-2.38E-05,-3.50E-05,21:16.0
0.0001598,1.03E-05,-6.48E-05,-4.28E-05,-5.64E-05,21:16.0
0.00017007,7.44E-06,-6.98E-05,-4.43E-05,-5.60E-05,21:16.0
0.00010597,7.28E-06,-5.76E-05,-2.79E-05,-3.62E-05,21:16.0
3.85E-05,1.07E-05,-3.10E-05,-4.41E-06,-6.86E-06,21:16.0
-2.45E-05,1.03E-05,-3.98E-06,1.85E-05,1.42E-05,21:16.0
-8.85E-05,1.21E-05,1.54E-05,4.16E-05,2.71E-05,21:16.0
-0.00010258,1.33E-05,1.40E-05,4.68E-05,3.59E-05,21:16.0
-4.64E-05,8.29E-06,-7.48E-06,2.65E-05,1.85E-05,21:16.0
3.70E-05,7.09E-06,-3.37E-05,-1.39E-06,-1.35E-05,21:16.0
0.0001079,5.67E-06,-5.97E-05,-2.76E-05,-3.72E-05,21:16.1
0.00015932,3.90E-06,-7.43E-05,-4.33E-05,-5.28E-05,21:16.1
0.0001616,4.43E-06,-7.59E-05,-4.60E-05,-5.18E-05,21:16.1
0.00010602,2.06E-06,-6.83E-05,-2.97E-05,-3.57E-05,21:16.1
3.37E-05,5.85E-06,-4.34E-05,2.86E-06,-1.12E-05,21:16.1
-4.54E-05,1.11E-05,-1.51E-05,2.52E-05,1.35E-05,21:16.1
-0.00010447,6.66E-06,1.21E-06,3.97E-05,2.95E-05,21:16.1
-0.00010424,4.05E-06,5.65E-06,4.39E-05,3.78E-05,21:16.1
-6.47E-05,6.07E-06,-1.24E-05,2.02E-05,2.18E-05,21:16.1
1.36E-05,5.12E-06,-4.70E-05,-8.30E-06,-1.19E-05,21:16.1
0.00010304,2.82E-06,-7.39E-05,-2.94E-05,-3.59E-05,21:16.1
0.00014501,-3.09E-07,-8.74E-05,-4.95E-05,-5.21E-05,21:16.1
0.00015428,1.18E-07,-8.76E-05,-5.29E-05,-5.45E-05,21:16.1
0.00011822,8.06E-06,-7.09E-05,-2.88E-05,-3.45E-05,21:16.1
2.91E-05,1.30E-05,-4.71E-05,3.37E-06,-8.05E-06,21:16.1
-4.68E-05,1.20E-05,-2.43E-05,2.17E-05,1.28E-05,21:16.1
-9.32E-05,1.12E-05,-5.06E-07,4.23E-05,3.11E-05,21:16.1
-0.00010725,1.16E-05,4.13E-06,5.21E-05,3.73E-05,21:16.1
-5.48E-05,1.26E-05,-2.13E-05,2.42E-05,1.87E-05,21:16.1
3.14E-05,1.04E-05,-4.75E-05,-4.07E-06,-5.84E-06,21:16.1
9.75E-05,6.82E-06,-6.43E-05,-2.27E-05,-2.60E-05,21:16.1
0.00014939,6.21E-06,-7.93E-05,-4.32E-05,-4.59E-05,21:16.1
0.00015907,6.69E-06,-8.30E-05,-4.22E-05,-4.69E-05,21:16.1
9.95E-05,8.38E-06,-6.84E-05,-2.28E-05,-2.83E-05,21:16.1
3.36E-05,9.78E-06,-4.24E-05,5.36E-07,-5.81E-06,21:16.1
-2.68E-05,1.07E-05,-1.95E-05,2.50E-05,2.34E-05,21:16.1
-9.26E-05,9.75E-06,-3.86E-06,4.18E-05,4.34E-05,21:16.1
-0.00010319,6.61E-06,-4.10E-06,3.75E-05,3.49E-05,21:16.1
-4.67E-05,9.33E-06,-2.72E-05,1.61E-05,1.44E-05,21:16.1
3.92E-05,9.35E-06,-5.35E-05,-5.54E-06,-9.71E-06,21:16.1
0.00011867,2.71E-06,-7.54E-05,-2.94E-05,-3.79E-05,21:16.1
0.00016256,3.32E-06,-9.23E-05,-4.63E-05,-5.45E-05,21:16.1
0.00016276,6.60E-06,-9.06E-05,-4.26E-05,-5.12E-05,21:16.1
0.0001119,8.08E-06,-7.39E-05,-2.50E-05,-2.96E-05,21:16.1
2.82E-05,1.04E-05,-4.81E-05,1.46E-06,-1.48E-06,21:16.1
-5.15E-05,1.01E-05,-2.20E-05,2.61E-05,2.12E-05,21:16.1
-9.94E-05,1.19E-05,-7.15E-06,4.28E-05,3.45E-05,21:16.1
-9.89E-05,1.30E-05,-4.11E-06,4.35E-05,3.42E-05,21:16.1
-5.54E-05,7.63E-06,-2.05E-05,1.99E-05,1.63E-05,21:16.1
2.72E-05,6.81E-06,-5.32E-05,-1.16E-05,-1.44E-05,21:16.1
0.00011338,1.22E-05,-7.77E-05,-3.43E-05,-3.64E-05,21:16.1
0.00015585,1.34E-05,-8.74E-05,-4.52E-05,-4.71E-05,21:16.1
0.00015234,1.13E-05,-8.71E-05,-4.27E-05,-5.02E-05,21:16.1
9.94E-05,8.39E-06,-6.97E-05,-2.40E-05,-3.08E-05,21:16.1
1.69E-05,6.80E-06,-4.44E-05,-1.57E-06,-5.15E-06,21:16.1
-5.68E-05,7.66E-06,-2.26E-05,2.15E-05,1.60E-05,21:16.1
-0.00010684,7.13E-06,-7.73E-07,4.50E-05,3.90E-05,21:16.1
-0.00010925,1.00E-05,-1.60E-06,3.85E-05,3.91E-05,21:16.1
-5.14E-05,1.26E-05,-2.82E-05,1.22E-05,1.42E-05,21:16.1
3.63E-05,5.49E-06,-5.13E-05,-7.01E-06,-1.19E-05,21:16.1
0.00010943,2.23E-06,-7.19E-05,-2.98E-05,-3.50E-05,21:16.2
0.00015381,2.92E-06,-8.85E-05,-4.70E-05,-5.29E-05,21:16.2
0.00014785,-1.29E-06,-8.89E-05,-4.44E-05,-5.07E-05,21:16.2
8.12E-05,-2.48E-07,-7.14E-05,-2.68E-05,-2.65E-05,21:16.2
1.32E-05,1.19E-06,-4.13E-05,-1.51E-06,-6.14E-07,21:16.2
-4.95E-05,3.15E-07,-1.63E-05,2.50E-05,2.35E-05,21:16.2
-0.00011785,4.10E-06,-1.79E-06,4.56E-05,4.23E-05,21:16.2
-0.00012192,2.39E-06,-4.03E-06,4.28E-05,3.64E-05,21:16.2
-5.38E-05,2.61E-07,-2.45E-05,2.19E-05,1.75E-05,21:16.2
2.48E-05,1.47E-06,-4.73E-05,-1.75E-06,-6.50E-06,21:16.2
9.63E-05,-5.33E-06,-7.14E-05,-3.05E-05,-3.79E-05,21:16.2
0.00014591,-6.43E-06,-8.47E-05,-4.64E-05,-5.13E-05,21:16.2
0.00013306,-2.14E-06,-7.73E-05,-3.70E-05,-4.08E-05,21:16.2
7.32E-05,-3.07E-06,-6.17E-05,-1.82E-05,-1.99E-05,21:16.2
4.63E-07,2.35E-06,-3.62E-05,8.09E-06,9.22E-06,21:16.2
-7.68E-05,5.76E-06,-6.60E-06,3.58E-05,3.67E-05,21:16.2
-0.00011775,6.44E-06,9.89E-06,4.83E-05,4.91E-05,21:16.2
-0.00011245,1.17E-05,1.08E-05,4.87E-05,4.65E-05,21:16.2
-6.20E-05,8.73E-06,-6.49E-06,3.08E-05,2.95E-05,21:16.2
3.79E-05,4.14E-06,-3.93E-05,-6.75E-06,-3.54E-06,21:16.2
0.000111,5.03E-06,-6.62E-05,-3.17E-05,-2.97E-05,21:16.2
0.00013746,6.33E-06,-7.54E-05,-3.86E-05,-3.74E-05,21:16.2
0.00014127,6.10E-06,-7.28E-05,-3.90E-05,-3.90E-05,21:16.2
8.42E-05,5.06E-06,-5.35E-05,-1.95E-05,-1.77E-05,21:16.2
-8.49E-06,6.46E-06,-2.36E-05,1.30E-05,1.67E-05,21:16.2
-7.69E-05,4.32E-06,-2.32E-06,3.57E-05,3.58E-05,21:16.2
-0.00011734,3.81E-06,1.14E-05,5.07E-05,5.22E-05,21:16.2
-0.0001214,7.85E-06,9.70E-06,5.09E-05,5.02E-05,21:16.2
-6.46E-05,6.91E-06,-1.40E-05,2.51E-05,2.26E-05,21:16.2
2.60E-05,2.65E-06,-4.06E-05,-2.90E-06,-3.33E-06,21:16.2
9.95E-05,-1.01E-06,-6.10E-05,-2.32E-05,-2.61E-05,21:16.2
0.00014501,6.27E-07,-7.36E-05,-3.95E-05,-3.74E-05,21:16.2
0.00012893,3.98E-08,-7.36E-05,-3.48E-05,-3.23E-05,21:16.2
5.71E-05,-4.75E-06,-5.39E-05,-1.74E-05,-1.59E-05,21:16.2
-4.41E-06,-2.96E-06,-2.11E-05,2.62E-06,9.43E-06,21:16.2
-7.38E-05,-3.17E-06,1.80E-06,3.37E-05,3.25E-05,21:16.2
-0.00013777,-4.03E-06,1.35E-05,4.91E-05,4.81E-05,21:16.2
-0.00012669,-5.08E-07,1.27E-05,3.72E-05,4.53E-05,21:16.2
-6.44E-05,-4.99E-06,-7.99E-06,2.32E-05,2.54E-05,21:16.2
1.44E-05,-1.18E-05,-3.84E-05,4.88E-07,3.06E-08,21:16.2
9.20E-05,-9.04E-06,-6.74E-05,-2.87E-05,-2.70E-05,21:16.2
0.00012979,-8.48E-06,-7.95E-05,-3.83E-05,-3.68E-05,21:16.2
0.0001105,-1.53E-05,-6.83E-05,-3.18E-05,-2.90E-05,21:16.2
5.07E-05,-1.60E-05,-4.54E-05,-1.27E-05,-1.50E-05,21:16.2
-2.33E-05,-1.53E-05,-2.13E-05,1.28E-05,1.30E-05,21:16.2
-9.90E-05,-1.76E-05,-3.05E-06,3.44E-05,4.10E-05,21:16.2
-0.00014227,-1.49E-05,1.07E-05,5.23E-05,4.90E-05,21:16.2
-0.00012741,-1.38E-05,1.18E-05,4.48E-05,4.36E-05,21:16.2
-7.00E-05,-1.63E-05,-1.05E-05,1.78E-05,2.36E-05,21:16.2
1.20E-05,-1.70E-05,-4.11E-05,-5.70E-06,-4.97E-06,21:16.2
7.79E-05,-2.00E-05,-6.26E-05,-3.19E-05,-2.55E-05,21:16.3
0.00010275,-2.86E-05,-7.35E-05,-4.57E-05,-4.28E-05,21:16.3
9.27E-05,-3.04E-05,-7.13E-05,-3.68E-05,-3.99E-05,21:16.3
3.70E-05,-2.32E-05,-4.99E-05,-1.72E-05,-1.11E-05,21:16.3
-5.39E-05,-2.72E-05,-2.20E-05,6.76E-06,9.67E-06,21:16.3
-0.00012918,-3.06E-05,-1.42E-06,2.97E-05,2.80E-05,21:16.3
-0.00015675,-1.95E-05,1.46E-05,4.61E-05,4.72E-05,21:16.3
-0.00014766,-1.71E-05,1.25E-05,3.91E-05,4.19E-05,21:16.3
-9.47E-05,-2.48E-05,-1.07E-05,1.52E-05,2.06E-05,21:16.3
-5.83E-06,-2.85E-05,-3.63E-05,-5.46E-06,-5.64E-06,21:16.3
6.69E-05,-2.73E-05,-6.00E-05,-2.89E-05,-3.28E-05,21:16.3
0.00010216,-2.50E-05,-7.10E-05,-4.22E-05,-4.17E-05,21:16.3
8.00E-05,-2.61E-05,-6.10E-05,-3.23E-05,-3.14E-05,21:16.3
1.04E-05,-2.95E-05,-4.11E-05,-1.25E-05,-1.24E-05,21:16.3
-5.18E-05,-3.05E-05,-1.84E-05,1.13E-05,9.95E-06,21:16.3
-0.00011628,-2.70E-05,5.06E-06,3.92E-05,3.53E-05,21:16.3
-0.00017515,-2.45E-05,2.28E-05,5.47E-05,5.47E-05,21:16.3
-0.00016193,-2.51E-05,1.79E-05,4.16E-05,4.58E-05,21:16.3
-9.18E-05,-2.56E-05,-6.66E-06,1.90E-05,2.18E-05,21:16.3
-1.66E-05,-2.86E-05,-3.17E-05,-3.49E-06,2.96E-06,21:16.3
5.56E-05,-3.05E-05,-5.58E-05,-3.14E-05,-2.28E-05,21:16.3
8.91E-05,-2.87E-05,-6.82E-05,-4.11E-05,-3.85E-05,21:16.3
5.99E-05,-2.75E-05,-5.95E-05,-3.04E-05,-2.78E-05,21:16.3
6.44E-06,-2.75E-05,-3.58E-05,-1.06E-05,-6.22E-06,21:16.3
-6.26E-05,-2.63E-05,-5.93E-06,1.58E-05,2.14E-05,21:16.3
-0.00013791,-2.27E-05,1.45E-05,3.70E-05,4.12E-05,21:16.3
-0.00017084,-2.06E-05,2.45E-05,5.19E-05,4.77E-05,21:16.3
-0.00015481,-1.87E-05,2.20E-05,4.60E-05,4.76E-05,21:16.3
-9.42E-05,-1.69E-05,1.92E-07,1.78E-05,2.42E-05,21:16.3
-4.85E-06,-2.00E-05,-2.68E-05,-5.98E-06,-7.42E-06,21:16.3
6.11E-05,-2.16E-05,-5.13E-05,-2.82E-05,-2.57E-05,21:16.3
8.75E-05,-2.20E-05,-6.61E-05,-4.54E-05,-3.94E-05,21:16.3
7.15E-05,-2.54E-05,-5.65E-05,-3.72E-05,-2.92E-05,21:16.3
9.51E-06,-2.45E-05,-3.36E-05,-1.11E-05,-1.79E-06,21:16.3
-7.60E-05,-2.21E-05,-9.62E-06,1.70E-05,1.77E-05,21:16.3
-0.00015181,-2.23E-05,1.92E-05,4.25E-05,4.20E-05,21:16.3
-0.00018064,-1.97E-05,3.28E-05,5.52E-05,5.59E-05,21:16.3
-0.00016415,-1.96E-05,1.82E-05,4.44E-05,4.45E-05,21:16.3
-0.00010789,-1.98E-05,-1.70E-06,2.16E-05,2.37E-05,21:16.3
-1.82E-05,-1.79E-05,-2.02E-05,-5.57E-06,-4.22E-06,21:16.3
5.16E-05,-2.34E-05,-4.14E-05,-2.99E-05,-2.87E-05,21:16.3
8.28E-05,-2.22E-05,-5.23E-05,-3.49E-05,-3.38E-05,21:16.3
5.95E-05,-1.56E-05,-3.96E-05,-2.43E-05,-2.05E-05,21:16.3
-1.77E-05,-1.93E-05,-1.46E-05,-4.92E-06,-1.92E-07,21:16.3
-8.19E-05,-1.82E-05,5.07E-06,2.37E-05,2.27E-05,21:16.3
-0.00013915,-1.58E-05,3.02E-05,5.02E-05,4.86E-05,21:16.3
-0.00019223,-1.74E-05,4.59E-05,5.88E-05,6.05E-05,21:16.3
-0.00017142,-1.38E-05,2.98E-05,4.80E-05,5.11E-05,21:16.3
-9.49E-05,-1.67E-05,1.03E-05,2.68E-05,3.04E-05,21:16.3
-2.04E-05,-2.23E-05,-9.12E-06,5.52E-07,4.71E-06,21:16.3
4.51E-05,-2.12E-05,-3.41E-05,-2.13E-05,-1.84E-05,21:16.4
7.38E-05,-1.99E-05,-3.98E-05,-2.93E-05,-2.59E-05,21:16.4
3.99E-05,-1.93E-05,-2.73E-05,-2.01E-05,-1.22E-05,21:16.4
-1.43E-05,-1.60E-05,-6.22E-06,4.94E-06,8.91E-06,21:16.4
-7.87E-05,-1.37E-05,1.82E-05,3.27E-05,3.15E-05,21:16.4
-0.00016054,-1.79E-05,3.62E-05,5.15E-05,5.12E-05,21:16.4
-0.00020101,-2.07E-05,4.71E-05,6.10E-05,5.85E-05,21:16.4
-0.00018179,-2.08E-05,4.33E-05,5.89E-05,5.45E-05,21:16.4
-0.00011364,-1.97E-05,2.05E-05,3.49E-05,3.39E-05,21:16.4
-2.12E-05,-1.46E-05,-6.26E-06,1.70E-06,1.01E-05,21:16.4
3.82E-05,-1.54E-05,-2.33E-05,-1.71E-05,-7.28E-06,21:16.4
5.74E-05,-1.90E-05,-2.87E-05,-2.25E-05,-2.38E-05,21:16.4
3.30E-05,-1.71E-05,-2.60E-05,-1.27E-05,-1.49E-05,21:16.4
-2.79E-05,-1.63E-05,-8.95E-06,8.63E-06,1.19E-05,21:16.4
-0.00010213,-1.41E-05,2.17E-05,2.92E-05,3.28E-05,21:16.4
-0.00017431,-9.84E-06,4.46E-05,5.20E-05,5.57E-05,21:16.4
-0.00020287,-9.36E-06,5.60E-05,6.56E-05,6.76E-05,21:16.4
-0.00018791,-7.39E-06,4.98E-05,5.49E-05,5.70E-05,21:16.4
-0.00012684,-6.61E-06,2.23E-05,2.89E-05,3.16E-05,21:16.4
-3.21E-05,-1.23E-05,4.77E-06,4.48E-06,2.84E-06,21:16.4
2.73E-05,-1.08E-05,-8.66E-06,-1.19E-05,-1.36E-05,21:16.4
5.69E-05,-3.90E-06,-2.42E-05,-2.07E-05,-2.11E-05,21:16.4
3.76E-05,-5.42E-07,-1.17E-05,-1.32E-05,-1.56E-05,21:16.4
-4.72E-05,-4.63E-07,1.07E-05,1.13E-05,1.25E-05,21:16.4
-0.0001111,-6.12E-06,2.81E-05,3.92E-05,3.93E-05,21:16.4
-0.00016287,-5.47E-06,5.21E-05,6.11E-05,5.72E-05,21:16.4
-0.00021459,-3.26E-06,6.02E-05,6.79E-05,6.61E-05,21:16.4
-0.000187,-8.85E-06,4.69E-05,5.38E-05,5.15E-05,21:16.4
-0.00010616,-7.20E-06,2.97E-05,3.07E-05,3.23E-05,21:16.4
-3.24E-05,-4.11E-06,3.68E-06,9.86E-06,1.22E-05,21:16.4
3.76E-05,-5.60E-06,-2.25E-05,-1.30E-05,-1.38E-05,21:16.4
6.25E-05,-8.11E-06,-2.72E-05,-2.50E-05,-2.05E-05,21:16.4
1.40E-05,-8.99E-06,-1.19E-05,-9.36E-06,-8.86E-06,21:16.4
-5.20E-05,-4.26E-06,1.42E-05,1.58E-05,1.11E-05,21:16.4
-0.00011702,-6.38E-06,3.78E-05,3.86E-05,3.68E-05,21:16.4
-0.00018765,-9.73E-06,5.24E-05,6.19E-05,5.85E-05,21:16.4
-0.00022253,-6.01E-06,6.35E-05,7.25E-05,6.78E-05,21:16.4
-0.00020066,-5.71E-06,6.04E-05,6.41E-05,5.74E-05,21:16.4
-0.00013248,-7.16E-06,3.66E-05,3.93E-05,3.57E-05,21:16.4
-4.91E-05,-9.83E-06,7.79E-06,7.67E-06,1.17E-05,21:16.4
1.18E-05,-1.08E-05,-1.30E-05,-1.12E-05,-1.17E-05,21:16.4
3.45E-05,-1.11E-05,-2.30E-05,-1.74E-05,-2.23E-05,21:16.4
1.63E-06,-1.75E-05,-1.44E-05,-6.83E-06,-1.08E-05,21:16.4
-7.14E-05,-1.68E-05,1.39E-05,2.27E-05,1.68E-05,21:16.4
-0.00014519,-7.42E-06,3.86E-05,4.42E-05,4.30E-05,21:16.4
-0.00020675,-4.90E-06,5.50E-05,6.01E-05,6.20E-05,21:16.4
-0.00023752,-7.75E-06,7.06E-05,7.59E-05,7.29E-05,21:16.4
-0.00021451,-7.31E-06,6.56E-05,6.55E-05,6.37E-05,21:16.4
-0.00014492,-7.54E-06,3.67E-05,3.76E-05,3.49E-05,21:16.4
-6.39E-05,-9.48E-06,5.03E-06,1.25E-05,4.98E-06,21:16.4
1.14E-06,-7.69E-06,-1.39E-05,-7.99E-06,-1.18E-05,21:16.5
2.80E-05,-1.03E-05,-1.47E-05,-1.44E-05,-1.67E-05,21:16.5
-7.60E-06,-1.35E-05,-1.80E-06,-2.62E-06,-5.87E-06,21:16.5
-7.90E-05,-7.86E-06,2.11E-05,2.31E-05,1.93E-05,21:16.5
-0.00015048,-4.22E-06,4.45E-05,4.77E-05,3.86E-05,21:16.5
-0.00021799,-3.69E-06,6.46E-05,6.75E-05,5.88E-05,21:16.5
-0.00024827,-4.24E-06,7.52E-05,8.29E-05,7.71E-05,21:16.5
-0.00021594,-4.96E-06,6.40E-05,7.06E-05,6.54E-05,21:16.5
-0.00014718,-4.07E-06,4.27E-05,4.26E-05,4.22E-05,21:16.5
-7.22E-05,-6.15E-06,1.92E-05,2.11E-05,2.17E-05,21:16.5
-1.01E-05,-7.33E-06,-2.64E-06,-3.04E-06,-2.64E-06,21:16.5
7.21E-06,-9.82E-06,-6.96E-06,-1.06E-05,-9.66E-06,21:16.5
-3.65E-05,-1.15E-05,6.90E-06,8.82E-06,5.39E-06,21:16.5
-0.00010038,-7.65E-06,3.02E-05,3.41E-05,2.91E-05,21:16.5
-0.00016147,-7.85E-06,5.54E-05,5.91E-05,5.49E-05,21:16.5
-0.00023109,-9.03E-06,7.60E-05,7.93E-05,7.47E-05,21:16.5
-0.00026604,-5.59E-06,8.47E-05,8.47E-05,8.33E-05,21:16.5
-0.00022843,-2.53E-06,7.41E-05,7.26E-05,7.46E-05,21:16.5
-0.00015337,-5.88E-06,4.98E-05,4.82E-05,4.76E-05,21:16.5
-7.74E-05,-9.89E-06,2.38E-05,1.96E-05,1.82E-05,21:16.5
-2.11E-05,-7.30E-06,4.24E-06,1.65E-06,1.65E-06,21:16.5
-6.55E-06,-9.32E-06,9.45E-07,4.95E-06,-2.20E-06,21:16.5
-4.07E-05,-1.05E-05,1.60E-05,2.21E-05,1.02E-05,21:16.5
-0.00011726,-4.22E-06,3.75E-05,4.50E-05,3.81E-05,21:16.5
-0.00019568,-1.92E-06,6.17E-05,6.75E-05,6.27E-05,21:16.5
-0.00024761,-1.98E-06,8.44E-05,8.63E-05,8.05E-05,21:16.5
-0.00028198,-4.26E-06,9.16E-05,9.59E-05,8.97E-05,21:16.5
-0.00025238,-4.59E-06,7.84E-05,8.28E-05,7.68E-05,21:16.5
-0.00016101,-1.38E-06,5.28E-05,5.47E-05,5.06E-05,21:16.5
-9.08E-05,-3.39E-06,2.86E-05,3.07E-05,2.80E-05,21:16.5
-4.44E-05,-3.09E-06,1.26E-05,1.26E-05,1.02E-05,21:16.5
-6.19E-05,9.68E-06,4.42E-06,9.09E-05,3.08E-06,21:16.5
-9.22E-05,7.30E-05,7.75E-05,0.00015289,3.51E-05,21:16.5
-0.00017626,3.48E-05,6.51E-05,0.00014067,5.14E-05,21:16.5
-0.00024465,5.88E-05,0.00011135,0.00019285,8.72E-05,21:16.5
-0.0003031,4.21E-05,0.00012052,0.00020093,0.00010433,21:16.5
-0.0003337,4.55E-05,0.00012452,0.00020846,0.00011149,21:16.5
-0.00029171,4.75E-05,0.00010849,0.00019823,9.54E-05,21:16.5
-0.00020601,3.80E-05,8.02E-05,0.00016622,6.43E-05,21:16.5
-0.00013169,4.66E-05,6.73E-05,0.00014954,3.62E-05,21:16.5
-7.10E-05,4.03E-05,3.72E-05,0.00012012,1.77E-05,21:16.5
-4.32E-05,4.43E-05,3.16E-05,0.00011365,1.68E-05,21:16.5
-8.89E-05,4.69E-05,5.28E-05,0.00013306,2.73E-05,21:16.5
-0.00015776,4.52E-05,7.56E-05,0.00015498,5.44E-05,21:16.5
-0.00021988,5.21E-05,0.00010252,0.00018305,8.11E-05,21:16.5
-0.000286,4.91E-05,0.00012027,0.00020346,9.80E-05,21:16.5
-0.00030643,4.77E-05,0.00012355,0.00020723,0.0001079,21:16.5
-0.00026761,4.86E-05,0.00011121,0.00019199,9.43E-05,21:16.5
-0.00019634,4.74E-05,8.64E-05,0.00016558,6.54E-05,21:16.5
-0.00011307,4.77E-05,5.88E-05,0.00013868,3.66E-05,21:16.6
-5.29E-05,4.56E-05,4.30E-05,0.00011938,2.07E-05,21:16.6
-3.90E-05,4.54E-05,3.84E-05,0.00011406,2.14E-05,21:16.6
-7.55E-05,4.67E-05,4.42E-05,0.00012761,3.41E-05,21:16.6
-0.00014417,5.33E-05,7.71E-05,0.00015757,6.44E-05,21:16.6
-0.00021128,6.33E-05,0.00010705,0.00018072,8.96E-05,21:16.6
-0.00026124,6.02E-05,0.00011503,0.00019686,0.00010057,21:16.6
-0.00028854,5.42E-05,0.00012226,0.00020763,0.00011001,21:16.6
-0.0002525,5.65E-05,0.00010988,0.00018975,9.50E-05,21:16.6
-0.00015496,5.40E-05,7.97E-05,0.00015873,6.14E-05,21:16.6
-8.21E-05,5.03E-05,5.65E-05,0.00013436,3.64E-05,21:16.6
-4.11E-05,4.93E-05,3.68E-05,0.00011492,1.92E-05,21:16.6
-1.51E-05,4.83E-05,3.27E-05,0.00011109,1.80E-05,21:16.6
-5.77E-05,5.18E-05,5.12E-05,0.00012439,3.66E-05,21:16.6
-0.00014012,5.45E-05,7.74E-05,0.00015125,6.05E-05,21:16.6
-0.00020655,5.66E-05,9.86E-05,0.00017779,8.18E-05,21:16.6
-0.00026272,5.89E-05,0.00011268,0.00019238,0.00010129,21:16.6
-0.00028492,5.82E-05,0.00011909,0.00020179,0.00010924,21:16.6
-0.00023576,5.97E-05,0.0001021,0.00018745,9.19E-05,21:16.6
-0.00014316,6.14E-05,7.18E-05,0.00015035,5.93E-05,21:16.6
-7.19E-05,5.86E-05,4.94E-05,0.00012397,2.90E-05,21:16.6
-2.19E-05,5.06E-05,3.07E-05,0.00010845,1.25E-05,21:16.6
-3.28E-06,4.64E-05,2.69E-05,0.00010344,1.48E-05,21:16.6
-5.47E-05,5.31E-05,4.30E-05,0.00011906,2.78E-05,21:16.6
-0.0001273,5.50E-05,6.57E-05,0.00014642,4.90E-05,21:16.6
-0.00019419,5.01E-05,9.00E-05,0.00017331,7.77E-05,21:16.6
-0.00025601,5.17E-05,0.00010813,0.00018894,9.92E-05,21:16.6
-0.00027214,5.44E-05,0.00011375,0.00018776,0.00010088,21:16.6
-0.00023193,5.25E-05,0.00010076,0.00017384,8.43E-05,21:16.6
-0.00014855,5.03E-05,7.23E-05,0.00015125,5.82E-05,21:16.6
-6.51E-05,4.70E-05,4.37E-05,0.00012239,3.18E-05,21:16.6
-1.31E-05,4.39E-05,2.52E-05,1.00E-04,1.58E-05,21:16.6
-3.44E-07,4.44E-05,2.27E-05,9.84E-05,1.26E-05,21:16.6
-4.43E-05,4.34E-05,3.39E-05,0.00011606,2.42E-05,21:16.6
-0.00012185,4.33E-05,5.84E-05,0.00014206,5.42E-05,21:16.6
-0.00019927,4.73E-05,8.42E-05,0.00015957,7.92E-05,21:16.6
-0.00025075,4.95E-05,9.50E-05,0.00017035,8.89E-05,21:16.6
-0.00026151,5.30E-05,0.00010204,0.00018314,9.70E-05,21:16.6
-0.00021475,5.88E-05,9.57E-05,0.00017297,8.18E-05,21:16.6
-0.00011429,6.22E-05,6.43E-05,0.00013945,4.81E-05,21:16.6
-3.79E-05,6.37E-05,4.12E-05,0.00011798,2.78E-05,21:16.6
4.37E-06,6.90E-05,3.42E-05,0.00011045,1.21E-05,21:16.6
3.43E-05,8.05E-05,3.29E-05,0.00010791,9.67E-06,21:16.6
-2.84E-06,8.44E-05,4.87E-05,0.00012336,3.07E-05,21:16.6
-8.75E-05,8.14E-05,7.41E-05,0.00015467,5.41E-05,21:16.6
-0.00015435,8.64E-05,9.72E-05,0.00018378,7.76E-05,21:16.6
-0.00019923,9.73E-05,0.0001169,0.00020807,9.87E-05,21:16.6
-0.00021324,0.00010708,0.00012126,0.00021743,0.0001056,21:16.6
-0.00016533,0.00010888,0.00010373,0.0001994,9.19E-05,21:16.6
-7.33E-05,0.00010821,7.64E-05,0.00016917,5.95E-05,21:16.6
6.01E-06,0.00011437,5.41E-05,0.0001441,3.64E-05,21:16.7
6.37E-05,0.00012046,4.12E-05,0.00013271,2.98E-05,21:16.7
8.18E-05,0.00012735,4.37E-05,0.0001341,2.84E-05,21:16.7
2.96E-05,0.00013051,6.08E-05,0.00014619,4.58E-05,21:16.7
-3.98E-05,0.0001284,8.44E-05,0.00017165,7.31E-05,21:16.7
-0.00010194,0.00013398,0.00011463,0.00019916,9.51E-05,21:16.7
-0.00016298,0.0001383,0.000133,0.00021937,0.00011615,21:16.7
-0.00017045,0.0001393,0.00013187,0.00022743,0.00011865,21:16.7
-0.00011566,0.00014335,0.00012375,0.0002137,9.67E-05,21:16.7
-2.51E-05,0.00014688,0.00010284,0.00017992,6.94E-05,21:16.7
7.38E-05,0.00015344,7.80E-05,0.00014442,4.66E-05,21:16.7
0.00011763,0.000145,6.25E-05,0.00012244,2.75E-05,21:16.7
9.61E-05,0.00012013,5.58E-05,0.00011154,2.19E-05,21:16.7
4.71E-05,0.00010824,6.47E-05,0.00011656,4.20E-05,21:16.7
-2.88E-05,0.00010384,8.27E-05,0.00013319,6.72E-05,21:16.7
-0.00010995,0.00010155,9.96E-05,0.00014507,8.93E-05,21:16.7
-0.00015394,0.00010739,0.0001122,0.00015935,0.00011502,21:16.7
-0.00016721,0.00010649,0.00010842,0.00016511,0.00012335,21:16.7
-0.00013577,9.57E-05,8.47E-05,0.00014414,0.00010465,21:16.7
-5.25E-05,8.45E-05,5.43E-05,0.00011318,6.83E-05,21:16.7
1.80E-05,7.67E-05,2.91E-05,9.06E-05,3.60E-05,21:16.7
5.54E-05,7.46E-05,1.42E-05,8.12E-05,2.29E-05,21:16.7
6.13E-05,7.29E-05,1.42E-05,8.46E-05,2.27E-05,21:16.7
9.01E-06,7.19E-05,2.58E-05,0.00010291,3.83E-05,21:16.7
-7.03E-05,7.52E-05,4.63E-05,0.000129,6.12E-05,21:16.7
-0.00014048,7.26E-05,7.11E-05,0.00015327,7.81E-05,21:16.7
-0.00019716,7.03E-05,8.90E-05,0.00017454,9.26E-05,21:16.7
-0.0002067,7.36E-05,8.96E-05,0.00017511,9.75E-05,21:16.7
-0.00014758,7.16E-05,6.61E-05,0.00015338,8.33E-05,21:16.7
-5.98E-05,7.00E-05,3.94E-05,0.0001256,5.47E-05,21:16.7
6.58E-06,6.58E-05,2.30E-05,9.92E-05,2.84E-05,21:16.7
4.92E-05,5.93E-05,5.26E-06,8.88E-05,1.58E-05,21:16.7
5.36E-05,6.03E-05,3.49E-06,9.32E-05,1.74E-05,21:16.7
-6.27E-06,5.70E-05,2.09E-05,0.00010458,3.49E-05,21:16.7
-8.07E-05,5.15E-05,4.10E-05,0.00012652,6.02E-05,21:16.7
-0.00014196,4.97E-05,6.27E-05,0.00014753,8.27E-05,21:16.7
-0.00020756,4.48E-05,7.33E-05,0.0001586,9.41E-05,21:16.7
-0.00021636,4.29E-05,7.03E-05,0.00015836,8.94E-05,21:16.7
-0.0001506,3.89E-05,5.40E-05,0.00014159,7.09E-05,21:16.7
-7.42E-05,3.34E-05,2.36E-05,0.0001121,4.10E-05,21:16.7
3.26E-06,3.95E-05,-1.77E-07,8.36E-05,1.56E-05,21:16.7
4.51E-05,3.99E-05,-1.45E-05,6.82E-05,4.86E-06,21:16.7
2.33E-05,2.77E-05,-1.67E-05,6.92E-05,5.55E-06,21:16.7
-1.68E-05,2.57E-05,7.60E-06,8.63E-05,2.21E-05,21:16.7
-8.55E-05,3.05E-05,3.19E-05,0.00011234,4.57E-05,21:16.7
-0.00016901,2.80E-05,4.60E-05,0.00013431,6.82E-05,21:16.7
-0.00021321,2.64E-05,6.81E-05,0.00014952,8.62E-05,21:16.7
-0.00021867,2.42E-05,6.87E-05,0.00015102,8.37E-05,21:16.7
-0.00016672,1.86E-05,4.19E-05,0.00012838,6.62E-05,21:16.7
-7.46E-05,2.05E-05,1.75E-05,9.98E-05,4.13E-05,21:16.7
-8.37E-06,2.42E-05,-8.30E-06,7.87E-05,8.15E-06,21:16.8
2.93E-05,2.73E-05,-2.30E-05,6.03E-05,-9.81E-06,21:16.8
3.27E-05,2.77E-05,-1.88E-05,6.29E-05,-1.65E-06,21:16.8
-2.03E-05,2.12E-05,-6.94E-06,8.61E-05,2.00E-05,21:16.8
-0.00010411,1.04E-05,2.71E-05,0.00012093,3.05E-05,21:16.8
-0.00019054,-1.71E-05,7.37E-05,0.00018228,1.79E-05,21:16.8
-0.00026132,-5.18E-05,0.00010991,0.00024215,7.64E-07,21:16.8
-0.00029007,-0.00010087,0.00012901,0.00027533,-3.98E-05,21:16.8
-0.00025112,-0.00015931,0.00012585,0.00028918,-0.00010137,21:16.8
-0.00017247,-0.00018654,0.00012144,0.00029497,-0.0001538,21:16.8
-0.00012667,-0.0002183,0.00012522,0.00031912,-0.00021794,21:16.8
-9.69E-05,-0.00022721,0.00013087,0.0003348,-0.00025463,21:16.8
-5.70E-05,-0.00016108,0.00017342,0.00034285,-0.00024317,21:16.8
-6.60E-05,-9.49E-05,0.00022428,0.00037591,-0.00021434,21:16.8
-0.00011892,-1.93E-05,0.000208,0.00041036,-0.00014358,21:16.8
-0.00017923,7.70E-05,0.0001643,0.00047423,-6.38E-05,21:16.8
-0.00021356,0.00016621,0.00011255,0.00052119,2.36E-05,21:16.8
-0.00014434,0.00034056,2.76E-05,0.00049829,0.00013636,21:16.8
5.45E-06,0.00056809,-4.66E-05,0.00045908,0.00021204,21:16.8
0.00019421,0.00076471,-0.00013154,0.00031887,0.00027792,21:16.8
0.0004448,0.00099055,-0.00021756,7.11E-05,0.0003629,21:16.8
0.00067874,0.0012363,-0.0002278,-0.00017064,0.00043802,21:16.8
0.00082478,0.0014166,-0.00022432,-0.00040013,0.00049939,21:16.8
0.00092369,0.0015051,-0.00022804,-0.00060955,0.0005546,21:16.8
0.0010194,0.0015871,-0.00017191,-0.00078585,0.00061055,21:16.8
0.0010832,0.0016191,-9.97E-05,-0.00089386,0.00061618,21:16.8
0.0010744,0.0014707,-4.94E-05,-0.00098211,0.00057592,21:16.8
0.0010764,0.0013362,-3.41E-05,-0.0011021,0.00054234,21:16.8
0.0010915,0.0012009,-6.10E-05,-0.0011435,0.00049218,21:16.8
0.001008,0.00085771,-7.42E-05,-0.0010958,0.00042526,21:16.8
0.00082903,0.00053216,-0.00016515,-0.00096756,0.00038242,21:16.8
0.00052141,0.00029072,-0.00038663,-0.0007593,0.00038371,21:16.8
0.00015825,6.67E-05,-0.00050067,-0.00056387,0.00038173,21:16.8
-6.21E-05,-3.36E-05,-0.00043563,-0.00040799,0.0003422,21:16.8
-0.00018127,-8.38E-05,-0.00034004,-0.00031222,0.00030151,21:16.8
-0.0002372,-7.70E-05,-0.00023265,-0.00024796,0.00025832,21:16.8
-0.00021119,-2.97E-06,-0.00012132,-0.00016967,0.00021551,21:16.8
-0.00017963,1.27E-05,-6.21E-05,-0.00012316,0.00016726,21:16.8
-0.00011444,1.48E-06,-4.80E-05,-0.00010855,9.37E-05,21:16.8
-7.35E-06,5.09E-06,-4.26E-05,-0.00010522,4.24E-05,21:16.8
9.27E-05,3.51E-05,-2.73E-05,-0.00010469,1.68E-05,21:16.8
0.00018172,8.65E-05,-3.20E-06,-8.73E-05,-7.52E-06,21:16.8
0.00020479,0.00011014,3.07E-05,-5.39E-05,-1.30E-05,21:16.8
0.00015432,0.00011832,6.51E-05,-1.63E-05,-6.85E-06,21:16.8
8.04E-05,0.00010963,8.76E-05,1.70E-05,1.09E-05,21:16.8
-2.90E-06,8.65E-05,0.00010785,4.89E-05,3.80E-05,21:16.8
-5.80E-05,7.62E-05,0.00011725,6.58E-05,4.30E-05,21:16.8
-5.15E-05,6.74E-05,0.00010436,6.43E-05,2.93E-05,21:16.8
-5.03E-06,5.87E-05,8.46E-05,5.95E-05,7.95E-06,21:16.8
6.03E-05,5.18E-05,6.35E-05,3.96E-05,-2.49E-05,21:16.8
0.00013095,4.17E-05,3.97E-05,1.22E-05,-4.84E-05,21:16.9
0.00015683,3.68E-05,2.71E-05,3.50E-06,-5.61E-05,21:16.9
0.00012596,3.62E-05,3.65E-05,1.40E-05,-5.68E-05,21:16.9
8.31E-05,3.58E-05,5.98E-05,3.92E-05,-4.01E-05,21:16.9
2.08E-05,4.03E-05,8.70E-05,6.93E-05,-1.19E-05,21:16.9
-5.64E-05,4.36E-05,0.00011278,9.22E-05,1.02E-05,21:16.9
-9.20E-05,4.23E-05,0.00012574,0.00010704,1.86E-05,21:16.9
-7.58E-05,4.67E-05,0.00011945,0.00010556,1.27E-05,21:16.9
-1.84E-05,4.86E-05,0.00010061,8.74E-05,-6.71E-06,21:16.9
7.00E-05,4.57E-05,7.47E-05,6.43E-05,-3.75E-05,21:16.9
0.00014309,4.83E-05,5.02E-05,3.81E-05,-6.30E-05,21:16.9
0.00017027,4.86E-05,4.11E-05,2.23E-05,-7.21E-05,21:16.9
0.00016134,5.15E-05,4.54E-05,3.58E-05,-6.21E-05,21:16.9
0.0001105,5.64E-05,6.19E-05,5.94E-05,-4.06E-05,21:16.9
3.24E-05,5.15E-05,8.90E-05,7.51E-05,-2.41E-05,21:16.9
-3.49E-05,4.91E-05,0.00010996,0.00010088,-1.75E-06,21:16.9
-7.85E-05,5.16E-05,0.00012448,0.00012075,1.88E-05,21:16.9
-6.26E-05,4.84E-05,0.00012414,0.00011017,7.82E-06,21:16.9
7.09E-06,4.18E-05,0.00010057,9.07E-05,-1.80E-05,21:16.9
7.39E-05,3.67E-05,7.42E-05,6.53E-05,-4.31E-05,21:16.9
0.00013537,3.34E-05,4.88E-05,3.66E-05,-7.03E-05,21:16.9
0.00017198,2.64E-05,3.27E-05,2.45E-05,-8.69E-05,21:16.9
0.00014743,2.40E-05,4.42E-05,2.81E-05,-8.26E-05,21:16.9
8.32E-05,2.92E-05,6.53E-05,4.72E-05,-6.20E-05,21:16.9
1.26E-05,2.80E-05,8.74E-05,7.22E-05,-3.88E-05,21:16.9
-5.25E-05,2.77E-05,0.00011162,9.32E-05,-1.81E-05,21:16.9
-9.41E-05,2.74E-05,0.00012058,0.00010636,-5.80E-06,21:16.9
-7.18E-05,2.15E-05,0.00011549,9.63E-05,-1.44E-05,21:16.9
4.69E-07,2.21E-05,9.98E-05,7.41E-05,-3.90E-05,21:16.9
7.40E-05,2.06E-05,7.34E-05,5.30E-05,-6.73E-05,21:16.9
0.0001438,1.77E-05,5.21E-05,2.64E-05,-9.03E-05,21:16.9
0.00017678,2.13E-05,4.37E-05,1.05E-05,-0.00010036,21:16.9
0.00014937,1.97E-05,5.25E-05,1.94E-05,-9.57E-05,21:16.9
9.50E-05,1.94E-05,7.48E-05,3.62E-05,-7.51E-05,21:16.9
2.52E-05,2.13E-05,9.95E-05,5.69E-05,-4.65E-05,21:16.9
-4.10E-05,2.03E-05,0.00012223,8.43E-05,-2.64E-05,21:16.9
-6.49E-05,2.47E-05,0.00013497,9.47E-05,-2.02E-05,21:16.9
-3.95E-05,2.97E-05,0.00013216,8.04E-05,-2.63E-05,21:16.9
2.76E-05,3.04E-05,0.00010636,5.92E-05,-4.83E-05,21:16.9
0.00011798,2.69E-05,7.34E-05,3.47E-05,-7.58E-05,21:16.9
0.00018259,2.40E-05,6.11E-05,7.97E-06,-9.82E-05,21:16.9
0.00019887,2.39E-05,5.63E-05,-5.93E-06,-0.00011248,21:16.9
0.00018374,2.23E-05,6.10E-05,3.63E-06,-0.00010241,21:16.9
0.0001291,2.25E-05,8.66E-05,2.63E-05,-7.76E-05,21:16.9
5.32E-05,2.26E-05,0.00010891,4.67E-05,-6.10E-05,21:16.9
-6.78E-06,2.11E-05,0.00012589,6.37E-05,-4.21E-05,21:16.9
-4.56E-05,2.05E-05,0.00013779,7.51E-05,-2.55E-05,21:16.9
-2.05E-05,2.27E-05,0.00012821,6.85E-05,-3.51E-05,21:16.9
6.43E-05,2.82E-05,0.00010528,4.29E-05,-6.27E-05,21:16.9
0.00013572,2.78E-05,7.82E-05,1.26E-05,-8.71E-05,21:16.9
0.00019517,2.55E-05,5.93E-05,-1.07E-05,-0.00011169,21:17.0
0.00023736,2.94E-05,5.86E-05,-1.94E-05,-0.00012558,21:17.0
0.00021176,3.00E-05,6.62E-05,-8.38E-06,-0.00010707,21:17.0
0.00014399,2.83E-05,8.50E-05,1.43E-05,-8.76E-05,21:17.0
8.36E-05,3.16E-05,0.00011303,3.32E-05,-7.40E-05,21:17.0
2.60E-05,3.50E-05,0.00013517,4.95E-05,-4.44E-05,21:17.0
-1.54E-05,3.56E-05,0.00014739,6.13E-05,-3.30E-05,21:17.0
1.05E-05,3.42E-05,0.00014,5.16E-05,-4.71E-05,21:17.0
8.84E-05,2.82E-05,0.00011397,2.95E-05,-6.87E-05,21:17.0
0.00016038,2.40E-05,9.22E-05,5.99E-06,-9.76E-05,21:17.0
0.00022648,2.80E-05,7.62E-05,-2.04E-05,-0.00011495,21:17.0
0.00026211,2.89E-05,6.41E-05,-3.17E-05,-0.00011919,21:17.0
0.00023035,2.80E-05,7.45E-05,-2.45E-05,-0.00011604,21:17.0
0.00017628,3.63E-05,9.72E-05,-7.76E-06,-9.88E-05,21:17.0
0.00011592,4.11E-05,0.00011591,1.76E-05,-7.08E-05,21:17.0
5.01E-05,3.79E-05,0.00013834,3.67E-05,-4.48E-05,21:17.0
2.01E-05,3.79E-05,0.00015275,4.18E-05,-3.69E-05,21:17.0
4.25E-05,3.66E-05,0.00014482,3.60E-05,-4.66E-05,21:17.0
0.00012098,3.51E-05,0.00012074,1.26E-05,-7.07E-05,21:17.0
0.00021196,3.51E-05,9.39E-05,-1.96E-05,-0.00010017,21:17.0
0.00027292,3.06E-05,7.61E-05,-4.46E-05,-0.00012157,21:17.0
0.00030504,3.03E-05,6.70E-05,-5.69E-05,-0.00013339,21:17.0
0.00028508,3.42E-05,7.43E-05,-4.77E-05,-0.00012486,21:17.0
0.00022239,3.34E-05,0.00010312,-2.47E-05,-0.00010126,21:17.0
0.00014919,3.48E-05,0.00013114,-6.87E-06,-8.03E-05,4/7/2021 16:21
8.75E-05,3.86E-05,0.00014943,9.24E-06,-6.08E-05,21:17.0
6.45E-05,4.03E-05,0.00015916,2.00E-05,-4.94E-05,21:17.0
9.73E-05,4.17E-05,0.00015094,8.16E-06,-5.96E-05,21:17.0
0.00017679,4.09E-05,0.00012974,-2.14E-05,-8.42E-05,21:17.0
0.00024672,4.30E-05,0.00010125,-4.76E-05,-0.00011005,21:17.0
0.00030807,4.59E-05,7.83E-05,-7.11E-05,-0.00013423,21:17.0
0.0003508,4.17E-05,7.64E-05,-8.79E-05,-0.00014242,21:17.0
0.00031585,4.00E-05,8.73E-05,-7.48E-05,-0.00012884,21:17.0
0.00026118,4.38E-05,0.00011213,-5.84E-05,-0.00010663,21:17.0
0.00019486,4.54E-05,0.00013971,-4.23E-05,-8.03E-05,21:17.0
9.67E-05,4.48E-05,0.00015268,4.71E-06,-5.88E-05,21:17.0
6.38E-05,4.51E-05,0.00016176,2.74E-05,-4.94E-05,21:17.0
0.00010567,4.72E-05,0.00015498,6.02E-06,-5.80E-05,21:17.0
0.00017721,4.67E-05,0.00013179,-1.69E-05,-8.36E-05,21:17.0
0.0002537,4.77E-05,0.00010613,-4.64E-05,-0.00010903,21:17.0
0.00031007,5.25E-05,7.96E-05,-7.02E-05,-0.0001331,21:17.0
0.00035543,4.61E-05,8.22E-05,-8.29E-05,-0.00014151,21:17.0
0.00035689,3.41E-05,0.0001076,-9.28E-05,-0.00012113,21:17.0
0.00030229,2.86E-05,0.00012839,-7.53E-05,-9.67E-05,21:17.0
0.00023544,2.45E-05,0.00015666,-4.74E-05,-7.27E-05,21:17.0
0.00017475,2.57E-05,0.00017763,-3.25E-05,-4.90E-05,21:17.0
0.0001467,2.59E-05,0.00018087,-2.37E-05,-4.10E-05,21:17.0
0.00017651,1.94E-05,0.00017621,-3.45E-05,-4.53E-05,21:17.0
0.00025239,1.65E-05,0.00015077,-6.35E-05,-6.58E-05,21:17.0
0.00033461,1.19E-05,0.00012047,-9.42E-05,-9.65E-05,21:17.0
0.00039106,1.20E-05,0.00010645,-0.00011889,-0.00011423,21:17.1
0.00041345,1.79E-05,9.96E-05,-0.00012628,-0.00011921,21:17.1
0.00039135,1.48E-05,0.00010906,-0.00011431,-0.00010689,21:17.1
0.000326,1.39E-05,0.00013342,-9.23E-05,-8.02E-05,21:17.1
0.00024521,1.05E-05,0.00014974,-7.24E-05,-5.80E-05,21:17.1
0.00018486,1.65E-06,0.00016366,-5.56E-05,-3.33E-05,21:17.1
0.00015773,3.34E-07,0.00017719,-4.54E-05,-1.79E-05,21:17.1
0.00018554,-7.07E-06,0.00016555,-5.72E-05,-3.17E-05,21:17.1
0.00027098,-1.44E-05,0.00013095,-8.42E-05,-5.23E-05,21:17.1
0.00034219,-1.57E-05,0.00010319,-0.00011027,-7.26E-05,21:17.1
0.00038678,-2.25E-05,8.54E-05,-0.00013022,-9.53E-05,21:17.1
0.00041704,-2.53E-05,7.17E-05,-0.00013931,-9.98E-05,21:17.1
0.00038421,-2.67E-05,7.80E-05,-0.0001311,-8.15E-05,21:17.1
0.0003087,-3.34E-05,0.00010143,-0.00010616,-5.39E-05,21:17.1
0.00023475,-3.78E-05,0.00012035,-7.84E-05,-2.58E-05,21:17.1
0.00016872,-3.91E-05,0.00013419,-5.94E-05,-2.71E-06,21:17.1
0.00013485,-4.29E-05,0.00013827,-5.21E-05,9.97E-06,21:17.1
0.00015884,-5.01E-05,0.00011991,-5.89E-05,4.47E-06,21:17.1
0.00022922,-5.35E-05,9.45E-05,-7.98E-05,-2.07E-05,21:17.1
0.00029505,-5.71E-05,6.96E-05,-0.00010475,-4.45E-05,21:17.1
0.00034414,-6.28E-05,4.08E-05,-0.00012189,-5.51E-05,21:17.1
0.00036109,-6.28E-05,2.92E-05,-0.00012737,-6.10E-05,21:17.1
0.00030884,-5.87E-05,3.73E-05,-0.00011443,-4.97E-05,21:17.1
0.00023685,-5.50E-05,5.11E-05,-8.50E-05,-2.03E-05,21:17.1
0.00016772,-5.71E-05,7.12E-05,-5.62E-05,4.91E-06,21:17.1
9.14E-05,-5.60E-05,8.47E-05,-3.62E-05,2.19E-05,21:17.1
5.92E-05,-4.87E-05,8.20E-05,-2.53E-05,3.29E-05,21:17.1
8.27E-05,-4.96E-05,6.58E-05,-2.91E-05,2.92E-05,21:17.1
0.00014506,-5.03E-05,3.58E-05,-4.99E-05,2.31E-06,21:17.1
0.00021981,-4.75E-05,4.87E-06,-7.30E-05,-2.71E-05,21:17.1
0.00026019,-4.70E-05,-2.15E-05,-8.93E-05,-4.41E-05,21:17.1
0.00025963,-4.23E-05,-3.81E-05,-9.40E-05,-5.37E-05,21:17.1
0.00022313,-3.67E-05,-3.05E-05,-7.59E-05,-3.74E-05,21:17.1
0.00015438,-2.77E-05,-1.36E-05,-4.90E-05,-9.87E-06,21:17.1
7.29E-05,-1.66E-05,6.44E-07,-2.43E-05,6.42E-06,21:17.1
2.70E-06,-1.69E-05,1.50E-05,1.69E-06,2.55E-05,21:17.1
-2.94E-05,-2.31E-05,1.47E-05,1.24E-05,3.31E-05,21:17.1
2.26E-06,-2.61E-05,-2.78E-06,2.35E-06,1.74E-05,21:17.1
7.88E-05,-2.70E-05,-2.93E-05,-2.02E-05,-9.15E-06,21:17.1
0.00014088,-2.87E-05,-6.05E-05,-4.54E-05,-3.79E-05,21:17.1
0.00017852,-2.87E-05,-8.16E-05,-6.23E-05,-5.60E-05,21:17.1
0.0001941,-1.95E-05,-8.63E-05,-6.61E-05,-5.78E-05,21:17.1
0.00015478,-1.10E-05,-8.00E-05,-4.94E-05,-4.54E-05,21:17.1
7.61E-05,-8.91E-06,-6.56E-05,-2.52E-05,-2.76E-05,21:17.1
5.22E-06,-5.53E-06,-4.29E-05,-3.63E-06,-5.23E-06,21:17.1
-5.23E-05,-5.22E-06,-2.19E-05,2.05E-05,1.88E-05,21:17.1
-8.32E-05,-7.47E-06,-1.81E-05,2.82E-05,2.31E-05,21:17.1
-4.62E-05,-9.45E-06,-3.26E-05,1.63E-05,1.02E-05,21:17.1
2.99E-05,-1.46E-05,-6.18E-05,-5.05E-06,-1.29E-05,21:17.1
9.52E-05,-1.84E-05,-9.19E-05,-3.50E-05,-4.47E-05,21:17.1
0.00015664,-1.70E-05,-0.00010555,-5.27E-05,-6.20E-05,21:17.2
0.00018011,-1.32E-05,-0.00010975,-5.38E-05,-6.04E-05,21:17.2
0.0001309,-1.45E-05,-0.00010149,-4.15E-05,-5.01E-05,21:17.2
5.40E-05,-1.72E-05,-7.89E-05,-1.52E-05,-2.79E-05,21:17.2
-1.08E-05,-1.09E-05,-5.68E-05,6.85E-06,-1.78E-06,21:17.2
-6.18E-05,-4.34E-06,-3.82E-05,2.68E-05,1.24E-05,21:17.2
-8.66E-05,-3.91E-06,-3.15E-05,3.35E-05,1.78E-05,21:17.2
-5.40E-05,-7.10E-06,-4.28E-05,1.44E-05,1.21E-05,21:17.2
2.54E-05,-8.88E-06,-6.64E-05,-6.50E-06,-1.66E-05,21:17.2
0.000105,-2.58E-06,-9.43E-05,-3.34E-05,-4.45E-05,21:17.2
0.00015476,-8.00E-07,-0.0001097,-5.66E-05,-5.57E-05,21:17.2
0.00016216,-8.10E-06,-0.00011401,-5.46E-05,-6.36E-05,21:17.2
0.00013143,-8.34E-06,-0.00010577,-4.10E-05,-5.51E-05,21:17.2
6.40E-05,-5.35E-06,-7.56E-05,-1.41E-05,-2.52E-05,21:17.2
-1.48E-05,-8.03E-06,-5.21E-05,6.30E-06,-1.85E-06,21:17.2
-6.32E-05,-6.52E-06,-4.16E-05,1.32E-05,1.17E-05,21:17.2
-8.21E-05,-3.15E-07,-3.11E-05,2.89E-05,2.31E-05,21:17.2
-4.79E-05,-7.41E-07,-4.36E-05,1.70E-05,1.06E-05,21:17.2
4.09E-05,-3.40E-06,-7.56E-05,-2.03E-05,-2.41E-05,21:17.2
0.00011196,-2.45E-06,-0.00010419,-4.26E-05,-5.03E-05,21:17.2
0.00015151,-4.34E-06,-0.00012067,-6.10E-05,-6.71E-05,21:17.2
0.00016686,-6.50E-06,-0.00011732,-6.27E-05,-7.04E-05,21:17.2
0.00012569,-7.92E-06,-0.00010081,-4.05E-05,-5.01E-05,21:17.2
4.64E-05,-1.02E-05,-7.56E-05,-2.00E-05,-2.76E-05,21:17.2
-2.08E-05,-8.86E-06,-5.19E-05,8.28E-07,-9.61E-06,21:17.2
-7.35E-05,-1.04E-05,-3.67E-05,1.96E-05,1.15E-05,21:17.2
-0.00010067,-1.22E-05,-3.04E-05,2.24E-05,1.78E-05,21:17.2
-5.55E-05,-8.89E-06,-4.56E-05,3.48E-06,-1.12E-06,21:17.2
2.97E-05,-9.75E-06,-6.85E-05,-2.83E-05,-3.05E-05,21:17.2
0.00010261,-1.43E-05,-8.96E-05,-5.14E-05,-5.66E-05,21:17.2
0.0001582,-1.96E-05,-0.00010893,-6.31E-05,-6.97E-05,21:17.2
0.00016057,-2.04E-05,-0.00010784,-6.22E-05,-6.86E-05,21:17.2
0.00011076,-1.56E-05,-9.03E-05,-4.60E-05,-5.76E-05,21:17.2
4.35E-05,-1.46E-05,-6.64E-05,-2.38E-05,-3.30E-05,21:17.2
-3.11E-05,-1.35E-05,-4.10E-05,1.58E-06,-3.72E-06,21:17.2
-8.36E-05,-1.04E-05,-2.53E-05,1.98E-05,1.47E-05,21:17.2
-9.40E-05,-1.24E-05,-2.12E-05,2.02E-05,1.66E-05,21:17.2
-5.28E-05,-1.40E-05,-3.35E-05,4.49E-06,-1.47E-06,21:17.2
2.83E-05,-1.23E-05,-5.96E-05,-2.21E-05,-2.99E-05,21:17.2
0.00010446,-1.42E-05,-8.83E-05,-4.63E-05,-5.54E-05,21:17.2
0.00015532,-1.39E-05,-0.00010678,-6.47E-05,-7.02E-05,21:17.2
0.00016543,-9.70E-06,-0.00010361,-7.15E-05,-7.25E-05,21:17.2
0.00011885,-1.66E-05,-8.70E-05,-5.27E-05,-5.99E-05,21:17.2
3.84E-05,-2.12E-05,-6.26E-05,-2.23E-05,-3.13E-05,21:17.2
-3.16E-05,-1.58E-05,-3.88E-05,-1.06E-06,-5.41E-06,21:17.2
-7.66E-05,-1.77E-05,-2.64E-05,1.56E-05,1.02E-05,21:17.2
-9.78E-05,-1.90E-05,-1.97E-05,2.32E-05,1.87E-05,21:17.2
-5.87E-05,-2.04E-05,-3.16E-05,3.40E-06,3.10E-06,21:17.2
3.19E-05,-2.52E-05,-6.05E-05,-2.64E-05,-3.00E-05,21:17.2
0.00010052,-2.43E-05,-8.31E-05,-4.55E-05,-5.44E-05,21:17.2
0.00013953,-2.51E-05,-0.00010054,-6.46E-05,-6.92E-05,21:17.3
0.00015211,-2.30E-05,-0.00010119,-6.88E-05,-7.35E-05,21:17.3
0.00010252,-2.03E-05,-8.08E-05,-4.39E-05,-5.82E-05,21:17.3
2.38E-05,-2.49E-05,-6.06E-05,-2.01E-05,-3.23E-05,21:17.3
-4.02E-05,-2.37E-05,-4.05E-05,-4.46E-06,-1.03E-05,21:17.3
-9.62E-05,-1.96E-05,-2.10E-05,1.40E-05,5.49E-06,21:17.3
-0.00010657,-1.90E-05,-1.82E-05,1.50E-05,1.01E-05,21:17.3
-4.76E-05,-2.20E-05,-3.88E-05,-3.83E-06,-8.76E-06,21:17.3
2.12E-05,-2.68E-05,-6.61E-05,-2.25E-05,-3.78E-05,21:17.3
8.35E-05,-2.78E-05,-8.59E-05,-4.51E-05,-5.61E-05,21:17.3
0.00014346,-3.30E-05,-0.00010382,-6.69E-05,-7.46E-05,21:17.3
0.00014468,-3.75E-05,-0.00010529,-7.01E-05,-7.85E-05,21:17.3
8.94E-05,-3.14E-05,-8.32E-05,-5.62E-05,-5.18E-05,21:17.3
2.04E-05,-2.85E-05,-6.07E-05,-3.03E-05,-2.69E-05,21:17.3
-5.71E-05,-3.30E-05,-4.07E-05,-3.30E-06,-5.76E-06,21:17.3
-0.00011302,-3.39E-05,-2.26E-05,1.26E-05,1.28E-05,21:17.3
-0.00011293,-3.00E-05,-2.06E-05,1.56E-05,1.32E-05,21:17.3
-6.13E-05,-2.86E-05,-3.42E-05,1.60E-06,-1.93E-06,21:17.3
1.68E-05,-2.91E-05,-6.11E-05,-2.71E-05,-3.16E-05,21:17.3
9.55E-05,-2.39E-05,-9.04E-05,-5.61E-05,-5.33E-05,21:17.3
0.00013941,-2.55E-05,-0.00010222,-6.99E-05,-6.37E-05,21:17.3
0.00012674,-3.69E-05,-0.00010041,-6.35E-05,-6.81E-05,21:17.3
8.31E-05,-3.33E-05,-8.75E-05,-4.35E-05,-4.60E-05,21:17.3
1.51E-05,-2.69E-05,-6.35E-05,-2.00E-05,-1.99E-05,21:17.3
-6.06E-05,-3.53E-05,-4.15E-05,-7.23E-07,-2.67E-06,21:17.3
-0.00010646,-3.79E-05,-2.47E-05,1.50E-05,1.62E-05,21:17.3
-0.00011906,-3.82E-05,-1.91E-05,1.76E-05,1.93E-05,21:17.3
-7.52E-05,-4.09E-05,-3.96E-05,-9.44E-07,5.89E-07,21:17.3
9.56E-06,-3.93E-05,-7.12E-05,-2.53E-05,-2.90E-05,21:17.3
7.77E-05,-4.20E-05,-8.72E-05,-4.85E-05,-5.03E-05,21:17.3
0.00011768,-4.56E-05,-9.73E-05,-6.46E-05,-6.06E-05,21:17.3
0.00011872,-4.49E-05,-9.83E-05,-5.88E-05,-6.09E-05,21:17.3
6.96E-05,-3.97E-05,-7.54E-05,-3.84E-05,-3.95E-05,21:17.3
-7.53E-06,-3.69E-05,-5.49E-05,-1.58E-05,-1.45E-05,21:17.3
-8.18E-05,-4.17E-05,-3.55E-05,6.58E-06,4.37E-06,21:17.3
-0.00013461,-4.00E-05,-1.32E-05,2.25E-05,2.28E-05,21:17.3
-0.00013832,-4.06E-05,-1.55E-05,2.38E-05,2.47E-05,21:17.3
-8.16E-05,-4.93E-05,-3.50E-05,5.95E-06,6.79E-06,21:17.3
-5.10E-06,-4.81E-05,-6.38E-05,-2.12E-05,-1.99E-05,21:17.3
6.28E-05,-4.46E-05,-9.16E-05,-4.48E-05,-4.53E-05,21:17.3
0.00010614,-4.56E-05,-9.98E-05,-6.13E-05,-5.63E-05,21:17.3
9.95E-05,-4.21E-05,-9.30E-05,-6.12E-05,-5.03E-05,21:17.3
4.58E-05,-3.78E-05,-7.37E-05,-4.21E-05,-3.69E-05,21:17.3
-2.92E-05,-3.65E-05,-5.14E-05,-1.26E-05,-1.56E-05,21:17.3
-0.00010306,-3.82E-05,-2.75E-05,1.42E-05,1.35E-05,21:17.3
-0.00015693,-3.94E-05,-9.80E-06,2.59E-05,3.27E-05,21:17.3
-0.00015732,-3.89E-05,-1.73E-05,2.64E-05,3.22E-05,21:17.3
-9.68E-05,-4.05E-05,-3.19E-05,1.08E-05,1.35E-05,21:17.3
-1.73E-05,-4.07E-05,-5.07E-05,-2.06E-05,-1.51E-05,21:17.3
5.03E-05,-4.38E-05,-7.69E-05,-4.29E-05,-4.00E-05,21:17.3
8.63E-05,-4.86E-05,-9.09E-05,-5.46E-05,-5.35E-05,21:17.4
7.86E-05,-4.29E-05,-9.01E-05,-5.23E-05,-4.68E-05,21:17.4
3.70E-05,-4.41E-05,-6.98E-05,-2.98E-05,-2.63E-05,21:17.4
-3.67E-05,-4.98E-05,-4.14E-05,-6.84E-06,2.88E-07,21:17.4
-0.00011671,-4.18E-05,-2.16E-05,1.76E-05,2.93E-05,21:17.4
-0.00016316,-4.09E-05,-1.62E-06,3.84E-05,4.15E-05,21:17.4
-0.00016939,-4.21E-05,2.06E-06,3.90E-05,3.96E-05,21:17.4
-0.0001257,-3.79E-05,-2.22E-05,1.98E-05,2.37E-05,21:17.4
-4.00E-05,-4.57E-05,-4.92E-05,-1.37E-05,-8.42E-06,21:17.4
3.50E-05,-4.73E-05,-6.97E-05,-3.67E-05,-3.03E-05,21:17.4
6.47E-05,-4.42E-05,-8.64E-05,-4.32E-05,-4.10E-05,21:17.4
5.55E-05,-5.10E-05,-8.17E-05,-4.16E-05,-3.87E-05,21:17.4
8.64E-06,-4.77E-05,-5.50E-05,-1.95E-05,-1.36E-05,21:17.4
-6.80E-05,-4.22E-05,-3.34E-05,7.38E-06,1.01E-05,21:17.4
-0.00013695,-4.65E-05,-1.37E-05,2.49E-05,2.82E-05,21:17.4
-0.0001851,-4.15E-05,6.66E-06,4.17E-05,4.68E-05,21:17.4
-0.00018222,-3.50E-05,7.28E-06,4.00E-05,4.55E-05,21:17.4
-0.00011258,-3.84E-05,-9.94E-06,1.54E-05,2.26E-05,21:17.4
-4.52E-05,-4.31E-05,-3.91E-05,-6.87E-06,-2.97E-07,21:17.4
8.27E-06,-4.32E-05,-6.36E-05,-2.81E-05,-2.07E-05,21:17.4
5.58E-05,-3.29E-05,-6.72E-05,-4.38E-05,-3.48E-05,21:17.4
4.21E-05,-3.23E-05,-5.93E-05,-3.23E-05,-2.26E-05,21:17.4
-2.18E-05,-4.11E-05,-3.99E-05,-1.05E-05,-2.44E-07,21:17.4
-9.25E-05,-3.69E-05,-1.41E-05,1.09E-05,1.74E-05,21:17.4
-0.00016228,-3.72E-05,7.93E-06,3.96E-05,4.41E-05,21:17.4
-0.00020824,-3.49E-05,2.06E-05,5.44E-05,6.09E-05,21:17.4
-0.00020071,-2.81E-05,1.68E-05,4.65E-05,5.40E-05,21:17.4
-0.00014657,-3.63E-05,2.96E-06,2.89E-05,3.38E-05,21:17.4
-7.05E-05,-3.61E-05,-1.96E-05,4.17E-06,6.65E-06,21:17.4
9.55E-06,-3.05E-05,-4.58E-05,-1.92E-05,-1.47E-05,21:17.4
4.37E-05,-3.36E-05,-5.52E-05,-2.55E-05,-2.44E-05,21:17.4
1.43E-05,-3.44E-05,-4.88E-05,-1.95E-05,-2.04E-05,21:17.4
-3.38E-05,-3.36E-05,-3.32E-05,-4.89E-06,-5.29E-07,21:17.4
-0.00010185,-3.18E-05,-4.70E-06,2.20E-05,2.63E-05,21:17.4
-0.00017977,-3.34E-05,1.91E-05,4.32E-05,4.87E-05,21:17.4
-0.00021736,-3.42E-05,2.84E-05,5.44E-05,6.23E-05,21:17.4
-0.00021119,-2.99E-05,2.98E-05,5.92E-05,6.41E-05,21:17.4
-0.00015943,-2.91E-05,1.20E-05,4.11E-05,4.60E-05,21:17.4
-7.49E-05,-2.96E-05,-1.73E-05,7.85E-06,1.98E-05,21:17.4
-1.01E-05,-3.00E-05,-3.95E-05,-1.34E-05,-2.37E-06,21:17.4
1.75E-05,-3.12E-05,-5.20E-05,-2.01E-05,-1.96E-05,21:17.4
6.07E-06,-2.93E-05,-4.42E-05,-1.61E-05,-1.38E-05,21:17.4
-5.26E-05,-2.41E-05,-1.93E-05,5.00E-06,1.27E-05,21:17.4
-0.00012841,-1.98E-05,6.53E-06,2.86E-05,4.03E-05,21:17.4
-0.00019351,-1.84E-05,2.74E-05,4.85E-05,6.35E-05,21:17.4
-0.00024831,-2.17E-05,4.21E-05,7.23E-05,7.74E-05,21:17.4
-0.00024565,-2.67E-05,4.26E-05,7.04E-05,7.47E-05,21:17.4
-0.0001713,-2.14E-05,2.41E-05,4.20E-05,5.18E-05,21:17.4
-0.00010311,-1.87E-05,1.35E-06,2.01E-05,2.31E-05,21:17.4
-4.82E-05,-2.63E-05,-1.80E-05,6.72E-07,3.34E-06,21:17.4
-2.04E-06,-2.64E-05,-3.07E-05,-9.35E-06,-7.70E-06,21:17.5
-2.57E-05,-2.25E-05,-2.40E-05,3.14E-06,4.32E-07,21:17.5
-9.45E-05,-2.05E-05,6.28E-07,1.97E-05,2.40E-05,21:17.5
-0.00015995,-1.76E-05,2.82E-05,3.89E-05,4.60E-05,21:17.5
-0.00023057,-1.79E-05,5.15E-05,6.67E-05,6.94E-05,21:17.5
-0.00027922,-2.20E-05,6.70E-05,8.21E-05,8.39E-05,21:17.5
-0.00026714,-2.57E-05,6.09E-05,7.65E-05,7.71E-05,21:17.5
-0.00020848,-2.37E-05,4.14E-05,5.66E-05,5.75E-05,21:17.5
-0.0001332,-2.42E-05,2.13E-05,2.52E-05,3.09E-05,21:17.5
-6.40E-05,-2.49E-05,-7.10E-06,4.31E-06,1.08E-05,21:17.5
-3.51E-05,-1.78E-05,-1.77E-05,2.87E-06,6.93E-06,21:17.5
-5.72E-05,-1.80E-05,-2.25E-06,7.03E-06,1.55E-05,21:17.5
-0.00011651,-2.14E-05,1.44E-05,2.64E-05,3.44E-05,21:17.5
-0.00019765,-1.64E-05,4.12E-05,5.72E-05,5.92E-05,21:17.5
-0.00026539,-1.43E-05,7.02E-05,7.85E-05,8.30E-05,21:17.5
-0.00029874,-1.41E-05,8.02E-05,9.29E-05,9.40E-05,21:17.5
-0.00029125,-1.13E-05,7.61E-05,9.18E-05,9.04E-05,21:17.5
-0.00023538,-1.19E-05,5.72E-05,6.73E-05,7.32E-05,21:17.5
-0.00015174,-1.31E-05,3.06E-05,3.81E-05,4.35E-05,21:17.5
-8.54E-05,-1.14E-05,1.31E-05,1.85E-05,2.17E-05,21:17.5
-6.89E-05,-9.65E-06,3.91E-06,1.16E-05,1.61E-05,21:17.5
-9.02E-05,-8.28E-06,7.57E-06,2.05E-05,2.39E-05,21:17.5
-0.00014805,-9.90E-06,3.44E-05,4.22E-05,4.50E-05,21:17.5
-0.00023439,-1.09E-05,6.58E-05,6.52E-05,6.98E-05,21:17.5
-0.00030073,-9.13E-06,8.63E-05,8.91E-05,9.46E-05,21:17.5
-0.00034173,-1.05E-05,9.87E-05,0.00010651,0.00011067,21:17.5
-0.0003351,-9.65E-06,9.37E-05,9.77E-05,0.00010425,21:17.5
-0.00026158,-8.33E-06,7.45E-05,7.65E-05,8.38E-05,21:17.5
-0.0001914,-1.25E-05,5.18E-05,5.36E-05,5.98E-05,21:17.5
-0.00013978,-1.66E-05,2.83E-05,3.02E-05,3.77E-05,21:17.5
-0.00010171,-1.71E-05,1.93E-05,2.49E-05,2.92E-05,21:17.5
-0.00012115,-9.82E-06,2.68E-05,3.43E-05,3.63E-05,21:17.5
5.19E-05,-3.71E-05,-1.95E-05,5.74E-06,-5.54E-05,21:17.5
7.86E-05,-1.95E-05,1.54E-05,-1.53E-06,-6.68E-05,21:17.5
-6.14E-05,-3.43E-05,3.15E-05,4.44E-05,-1.56E-05,21:17.5
-5.33E-05,-2.46E-05,4.83E-05,4.56E-05,-1.29E-05,21:17.5
-5.35E-05,-3.72E-05,3.14E-05,3.98E-05,-1.54E-05,21:17.5
1.39E-05,-3.97E-05,9.41E-06,1.64E-05,-3.88E-05,21:17.5
9.89E-05,-3.53E-05,-1.89E-05,-1.73E-05,-7.21E-05,21:17.5
0.00015646,-3.90E-05,-4.11E-05,-3.40E-05,-8.92E-05,21:17.5
0.00019652,-3.48E-05,-4.06E-05,-3.71E-05,-9.58E-05,21:17.5
0.00016249,-3.07E-05,-3.62E-05,-3.04E-05,-8.52E-05,21:17.5
0.00010633,-2.84E-05,-1.83E-05,-1.64E-05,-6.78E-05,21:17.5
2.51E-05,-3.01E-05,1.10E-05,1.22E-05,-4.24E-05,21:17.5
-4.38E-05,-3.27E-05,3.02E-05,3.46E-05,-1.65E-05,21:17.5
-6.36E-05,-3.25E-05,3.68E-05,4.11E-05,-6.24E-06,21:17.5
-5.50E-05,-3.08E-05,2.91E-05,3.84E-05,-1.77E-05,21:17.5
1.14E-05,-3.14E-05,4.44E-06,1.58E-05,-4.29E-05,21:17.5
9.69E-05,-3.83E-05,-2.29E-05,-1.28E-05,-6.45E-05,21:17.5
0.00015654,-3.86E-05,-4.17E-05,-3.60E-05,-8.58E-05,21:17.5
0.00018298,-3.61E-05,-5.12E-05,-4.35E-05,-9.74E-05,21:17.5
0.00016011,-3.75E-05,-4.20E-05,-2.75E-05,-8.53E-05,21:17.5
9.89E-05,-3.36E-05,-2.04E-05,-9.34E-06,-6.03E-05,21:17.5
2.01E-05,-3.29E-05,1.27E-06,1.40E-05,-3.44E-05,21:17.6
-4.76E-05,-3.46E-05,2.51E-05,4.01E-05,-1.59E-05,21:17.6
-8.33E-05,-3.14E-05,3.66E-05,4.77E-05,-3.99E-06,21:17.6
-6.05E-05,-3.24E-05,2.23E-05,3.88E-05,-7.47E-06,21:17.6
1.75E-05,-3.29E-05,-1.60E-06,1.59E-05,-3.34E-05,21:17.6
8.73E-05,-2.99E-05,-2.63E-05,-9.47E-06,-6.05E-05,21:17.6
0.00014428,-3.20E-05,-5.07E-05,-2.83E-05,-8.02E-05,21:17.6
0.00017908,-3.57E-05,-5.86E-05,-3.80E-05,-8.87E-05,21:17.6
0.00014254,-3.54E-05,-4.73E-05,-2.58E-05,-7.44E-05,21:17.6
7.40E-05,-3.34E-05,-2.81E-05,-8.77E-06,-5.27E-05,21:17.6
9.13E-06,-3.29E-05,-5.29E-06,1.10E-05,-3.38E-05,21:17.6
-6.18E-05,-3.34E-05,1.31E-05,4.11E-05,-1.11E-05,21:17.6
-9.71E-05,-3.54E-05,1.77E-05,5.00E-05,1.77E-06,21:17.6
-6.44E-05,-3.53E-05,7.19E-06,3.73E-05,-7.74E-06,21:17.6
4.05E-07,-3.18E-05,-1.49E-05,1.60E-05,-3.38E-05,21:17.6
6.86E-05,-3.42E-05,-4.12E-05,-1.27E-05,-6.19E-05,21:17.6
0.00013763,-3.55E-05,-6.01E-05,-3.02E-05,-7.84E-05,21:17.6
0.00016668,-3.47E-05,-6.39E-05,-3.68E-05,-8.35E-05,21:17.6
0.00013045,-3.71E-05,-5.68E-05,-3.04E-05,-7.54E-05,21:17.6
6.43E-05,-3.18E-05,-3.95E-05,-5.42E-06,-5.23E-05,21:17.6
-9.35E-06,-2.86E-05,-1.05E-05,1.98E-05,-2.45E-05,21:17.6
-7.45E-05,-3.14E-05,1.27E-05,3.96E-05,1.73E-07,21:17.6
-0.00010099,-3.00E-05,1.60E-05,4.95E-05,1.02E-05,21:17.6
-7.77E-05,-3.55E-05,3.29E-06,4.08E-05,-3.15E-06,21:17.6
-9.24E-06,-4.11E-05,-2.00E-05,1.71E-05,-3.11E-05,21:17.6
7.50E-05,-4.11E-05,-4.50E-05,-1.08E-05,-5.61E-05,21:17.6
0.00013094,-4.43E-05,-6.37E-05,-2.95E-05,-7.26E-05,21:17.6
0.00015199,-4.30E-05,-7.08E-05,-3.75E-05,-7.97E-05,21:17.6
0.00013015,-4.38E-05,-6.25E-05,-2.66E-05,-6.76E-05,21:17.6
5.32E-05,-4.84E-05,-3.77E-05,3.11E-06,-4.30E-05,21:17.6
-2.85E-05,-4.26E-05,-8.94E-06,2.75E-05,-1.99E-05,21:17.6
-8.43E-05,-3.95E-05,3.06E-06,4.34E-05,-2.17E-06,21:17.6
-0.00011739,-4.47E-05,6.07E-06,5.50E-05,5.14E-06,21:17.6
-8.80E-05,-4.38E-05,-6.31E-07,4.48E-05,-2.63E-06,21:17.6
-1.11E-05,-4.57E-05,-2.91E-05,1.34E-05,-2.83E-05,21:17.6
5.15E-05,-5.41E-05,-5.57E-05,-1.13E-05,-5.52E-05,21:17.6
0.00010396,-5.40E-05,-7.39E-05,-2.45E-05,-7.10E-05,21:17.6
0.00013912,-4.87E-05,-8.31E-05,-3.34E-05,-8.08E-05,21:17.6
0.00010905,-4.68E-05,-6.62E-05,-2.36E-05,-6.82E-05,21:17.6
3.27E-05,-4.79E-05,-4.16E-05,1.66E-06,-4.46E-05,21:17.6
-3.77E-05,-5.20E-05,-2.12E-05,2.60E-05,-2.66E-05,21:17.6
-9.90E-05,-5.05E-05,-2.18E-06,4.71E-05,1.38E-06,21:17.6
-0.00012249,-4.10E-05,5.42E-06,5.51E-05,5.12E-06,21:17.6
-7.50E-05,-3.53E-05,-4.76E-07,4.28E-05,-1.07E-05,21:17.6
-6.34E-06,-3.14E-05,-2.23E-05,2.04E-05,-2.13E-05,21:17.6
6.84E-05,-2.43E-05,-4.74E-05,-1.95E-06,-5.83E-05,21:17.6
0.00015144,-1.77E-05,-6.09E-05,-1.77E-05,-6.43E-05,21:17.6
0.00017579,-1.36E-05,-6.79E-05,-2.07E-05,-4.16E-05,21:17.6
0.00013539,-1.45E-05,-5.63E-05,-4.84E-06,-6.14E-05,21:17.6
7.00E-05,-9.37E-06,-2.59E-05,2.41E-05,-4.97E-05,21:17.6
-6.50E-06,1.37E-06,1.27E-06,5.11E-05,-8.56E-06,21:17.7
-6.09E-05,5.58E-06,1.99E-05,7.41E-05,2.75E-06,21:17.7
-7.83E-05,1.60E-05,2.54E-05,8.79E-05,1.74E-05,21:17.7
-5.17E-05,2.19E-05,1.12E-05,7.67E-05,8.15E-06,21:17.7
2.15E-05,1.08E-05,-1.46E-05,4.91E-05,-2.72E-05,21:17.7
9.98E-05,6.57E-06,-3.99E-05,2.39E-05,-4.58E-05,21:17.7
0.0001576,1.30E-05,-5.84E-05,6.74E-06,-6.25E-05,21:17.7
0.00018491,2.76E-05,-5.85E-05,6.35E-06,-6.46E-05,21:17.7
0.00016386,4.19E-05,-3.66E-05,2.28E-05,-4.13E-05,21:17.7
0.00010506,3.92E-05,-1.24E-05,4.75E-05,-2.05E-05,21:17.7
3.33E-05,3.65E-05,8.48E-06,7.35E-05,-1.32E-06,21:17.7
-3.27E-05,4.20E-05,2.98E-05,9.28E-05,2.23E-05,21:17.7
-6.56E-05,4.26E-05,3.68E-05,0.00010438,3.19E-05,21:17.7
-2.84E-05,4.09E-05,2.30E-05,9.69E-05,1.35E-05,21:17.7
6.35E-05,4.59E-05,2.35E-06,6.52E-05,-1.50E-05,21:17.7
0.00014138,5.42E-05,-1.47E-05,2.85E-05,-3.70E-05,21:17.7
0.00019834,4.98E-05,-2.71E-05,3.07E-07,-6.09E-05,21:17.7
0.00023097,3.66E-05,-3.17E-05,-1.15E-05,-6.87E-05,21:17.7
0.00018369,2.88E-05,-2.65E-05,-8.85E-06,-4.73E-05,21:17.7
9.53E-05,2.03E-05,-1.61E-05,-7.03E-07,-2.24E-05,21:17.7
2.57E-05,8.85E-06,-2.34E-06,1.06E-05,3.48E-06,21:17.7
-4.77E-05,1.69E-06,1.14E-05,2.02E-05,2.96E-05,21:17.7
-9.03E-05,-5.59E-06,1.09E-05,2.30E-05,3.92E-05,21:17.7
-5.72E-05,-1.46E-05,-7.40E-06,1.22E-05,2.91E-05,21:17.7
3.31E-06,-2.07E-05,-3.45E-05,-7.44E-06,-4.04E-06,21:17.7
6.07E-05,-3.26E-05,-6.48E-05,-2.58E-05,-4.45E-05,21:17.7
0.00011309,-4.66E-05,-8.43E-05,-4.03E-05,-6.42E-05,21:17.7
0.00012314,-5.11E-05,-8.61E-05,-4.03E-05,-6.46E-05,21:17.7
7.50E-05,-5.36E-05,-7.44E-05,-2.72E-05,-5.77E-05,21:17.7
-3.75E-06,-5.73E-05,-5.42E-05,-6.88E-06,-3.75E-05,21:17.7
-8.05E-05,-5.90E-05,-3.36E-05,2.08E-05,-1.03E-05,21:17.7
-0.00013334,-5.80E-05,-1.49E-05,4.40E-05,6.50E-06,21:17.7
-0.00015181,-6.18E-05,-9.91E-06,5.30E-05,1.35E-05,21:17.7
-0.0001208,-6.82E-05,-2.29E-05,3.67E-05,7.87E-07,21:17.7
-4.56E-05,-6.49E-05,-4.65E-05,2.07E-06,-3.26E-05,21:17.7
3.55E-05,-6.69E-05,-7.65E-05,-2.34E-05,-5.64E-05,21:17.7
8.83E-05,-7.06E-05,-9.41E-05,-3.43E-05,-6.62E-05,21:17.7
9.38E-05,-6.48E-05,-9.85E-05,-3.50E-05,-7.35E-05,21:17.7
5.48E-05,-7.09E-05,-8.91E-05,-2.32E-05,-6.28E-05,21:17.7
-1.30E-05,-7.37E-05,-5.97E-05,1.59E-06,-3.20E-05,21:17.7
-8.60E-05,-6.31E-05,-3.63E-05,2.73E-05,-7.68E-06,21:17.7
-0.00014722,-6.77E-05,-1.88E-05,4.39E-05,6.78E-06,21:17.7
-0.0001793,-7.59E-05,-9.38E-06,5.30E-05,1.65E-05,21:17.7
-0.00013923,-7.31E-05,-2.79E-05,4.05E-05,5.32E-06,21:17.7
-5.16E-05,-7.36E-05,-5.30E-05,9.44E-06,-2.15E-05,21:17.7
1.66E-05,-7.53E-05,-7.56E-05,-1.58E-05,-4.45E-05,21:17.7
6.82E-05,-7.52E-05,-9.59E-05,-3.37E-05,-6.54E-05,21:17.7
8.89E-05,-7.55E-05,-9.78E-05,-3.63E-05,-7.06E-05,21:17.7
4.32E-05,-7.35E-05,-8.40E-05,-1.79E-05,-4.93E-05,21:17.7
-3.15E-05,-7.20E-05,-6.25E-05,3.03E-06,-2.86E-05,21:17.7
-9.71E-05,-6.97E-05,-3.97E-05,2.48E-05,-9.49E-06,21:17.8
-0.00015983,-7.11E-05,-2.00E-05,5.05E-05,1.41E-05,21:17.8
-0.00018544,-7.59E-05,-1.27E-05,5.47E-05,1.81E-05,21:17.8
-0.00013508,-7.24E-05,-2.99E-05,3.38E-05,1.27E-06,21:17.8
-5.46E-05,-7.14E-05,-5.65E-05,7.02E-06,-2.44E-05,21:17.8
1.85E-05,-7.41E-05,-7.95E-05,-2.06E-05,-5.05E-05,21:17.8
7.72E-05,-7.02E-05,-9.77E-05,-3.37E-05,-6.83E-05,21:17.8
8.28E-05,-6.88E-05,-1.00E-04,-3.43E-05,-7.04E-05,21:17.8
3.76E-05,-7.01E-05,-8.10E-05,-2.33E-05,-5.21E-05,21:17.8
-3.32E-05,-7.15E-05,-5.42E-05,8.58E-06,-2.76E-05,21:17.8
-0.00011666,-7.85E-05,-3.17E-05,3.78E-05,-1.48E-05,21:17.8
-0.00018286,-0.00010328,2.61E-07,8.55E-05,-2.62E-05,21:17.8
-0.00021519,-0.00014022,3.30E-05,0.00014364,-5.18E-05,21:17.8
-0.00019506,-0.00016762,4.09E-05,0.00016078,-9.77E-05,21:17.8
-0.00013022,-0.00020928,3.57E-05,0.0001663,-0.00017304,21:17.8
-6.42E-05,-0.00026474,3.19E-05,0.00017233,-0.00023043,21:17.8
-3.48E-05,-0.00029948,4.42E-05,0.0001971,-0.00027267,21:17.8
-4.50E-05,-0.00030971,7.32E-05,0.00024625,-0.00030393,21:17.8
-4.66E-05,-0.00026173,0.00011874,0.00026827,-0.00028784,21:17.8
-5.97E-05,-0.000169,0.00018602,0.00029719,-0.00025689,21:17.8
-0.00010369,-9.77E-05,0.00020629,0.00034506,-0.00020669,21:17.8
-0.00013959,-3.57E-05,0.00015878,0.00039139,-0.00012904,21:17.8
-0.00015928,5.28E-05,8.93E-05,0.00043078,-6.39E-05,21:17.8
-8.89E-05,0.00020415,-1.85E-05,0.00042787,6.91E-06,21:17.8
6.57E-05,0.00040867,-0.00014163,0.00038713,8.70E-05,21:17.8
0.00022038,0.00060534,-0.00025297,0.00027103,0.00016775,21:17.8
0.00040922,0.00081779,-0.00034905,6.85E-05,0.00026532,21:17.8
0.00059138,0.0010524,-0.00037057,-0.0001722,0.00037118,21:17.8
0.00069868,0.0012456,-0.00034818,-0.00041234,0.00046195,21:17.8
0.00078073,0.0013751,-0.00034693,-0.0006009,0.00052405,21:17.8
0.00087908,0.0014716,-0.00032204,-0.00077481,0.00057798,21:17.8
0.00097743,0.0015307,-0.00025167,-0.00092004,0.00060422,21:17.8
0.0010316,0.0014345,-0.00019103,-0.0010298,0.00055774,21:17.8
0.0010759,0.0012674,-0.00018665,-0.0011591,0.00049006,21:17.8
0.0011374,0.0011825,-0.00021311,-0.0012326,0.00043755,21:17.8
0.0011265,0.00096395,-0.00021821,-0.0012344,0.00037095,21:17.8
0.00097372,0.00057947,-0.0002478,-0.0011282,0.00032213,21:17.8
0.00062894,0.00025092,-0.00038928,-0.00089575,0.00033211,21:17.8
0.00019087,3.95E-06,-0.00053875,-0.00068864,0.00036412,21:17.8
-0.00010423,-0.00013536,-0.00052301,-0.00051787,0.00035878,21:17.8
-0.0002464,-0.00018345,-0.0004141,-0.00037785,0.00030868,21:17.8
-0.0003047,-0.00018354,-0.00031268,-0.00030422,0.00025299,21:17.8
-0.0002581,-0.00011945,-0.00020786,-0.00024451,0.00020198,21:17.8
-0.00015603,-7.27E-05,-0.00014811,-0.00020968,0.00013229,21:17.8
-4.71E-05,-7.57E-05,-0.00013212,-0.00019795,5.01E-05,21:17.8
5.58E-05,-7.28E-05,-0.00011843,-0.0001908,-7.53E-06,21:17.8
0.00013124,-3.86E-05,-0.00010141,-0.00018311,-2.89E-05,21:17.8
0.00017673,7.38E-06,-5.85E-05,-0.00014473,-3.45E-05,21:17.8
0.00016864,3.70E-05,-3.90E-06,-9.88E-05,-3.03E-05,21:17.8
0.00010148,5.12E-05,4.34E-05,-5.73E-05,-1.41E-05,21:17.8
3.13E-05,4.71E-05,7.35E-05,-1.81E-05,4.63E-06,21:17.9
-2.69E-05,3.38E-05,7.74E-05,5.05E-06,1.80E-05,21:17.9
-6.06E-05,2.37E-05,7.69E-05,1.71E-05,1.95E-05,21:17.9
-1.96E-05,1.23E-05,6.30E-05,4.92E-06,-2.26E-06,21:17.9
6.44E-05,1.72E-06,3.17E-05,-2.18E-05,-3.88E-05,21:17.9
0.00013073,-5.85E-06,1.17E-05,-3.86E-05,-6.42E-05,21:17.9
0.00016544,-6.82E-06,1.83E-06,-4.86E-05,-7.64E-05,21:17.9
0.00016319,-7.40E-06,6.55E-06,-4.00E-05,-7.92E-05,21:17.9
0.00010885,-1.24E-05,3.01E-05,-1.19E-05,-6.19E-05,21:17.9
2.18E-05,-1.31E-05,5.14E-05,1.29E-05,-3.62E-05,21:17.9
-4.43E-05,-1.34E-05,7.52E-05,3.37E-05,-1.73E-05,21:17.9
-9.68E-05,-1.68E-05,9.96E-05,5.39E-05,-3.48E-06,21:17.9
-0.00010784,-1.85E-05,9.76E-05,5.81E-05,-5.73E-06,21:17.9
-3.97E-05,-1.92E-05,7.53E-05,4.32E-05,-2.82E-05,21:17.9
3.41E-05,-1.87E-05,5.13E-05,2.09E-05,-5.57E-05,21:17.9
0.00010325,-1.78E-05,2.64E-05,-7.47E-06,-8.20E-05,21:17.9
0.00016309,-2.09E-05,1.16E-05,-2.50E-05,-9.64E-05,21:17.9
0.00015356,-2.37E-05,1.79E-05,-1.68E-05,-9.20E-05,21:17.9
0.00010093,-1.98E-05,3.53E-05,-1.73E-06,-7.85E-05,21:17.9
3.13E-05,-1.43E-05,6.11E-05,2.27E-05,-5.29E-05,21:17.9
-4.84E-05,-1.30E-05,8.88E-05,5.57E-05,-2.43E-05,21:17.9
-0.00010302,-1.33E-05,9.86E-05,6.96E-05,-1.33E-05,21:17.9
-0.00010444,-1.36E-05,9.65E-05,6.70E-05,-1.60E-05,21:17.9
-4.83E-05,-1.56E-05,7.98E-05,4.75E-05,-3.55E-05,21:17.9
3.87E-05,-1.46E-05,4.53E-05,1.56E-05,-6.71E-05,21:17.9
0.00012559,-9.45E-06,2.64E-05,-4.62E-06,-8.67E-05,21:17.9
0.00016835,-3.91E-06,2.15E-05,-1.47E-05,-9.60E-05,21:17.9
0.00015874,-4.92E-07,1.81E-05,-8.27E-06,-9.11E-05,21:17.9
0.00011703,1.52E-06,3.24E-05,1.26E-05,-7.24E-05,21:17.9
3.91E-05,4.85E-06,6.25E-05,3.06E-05,-5.47E-05,21:17.9
-2.79E-05,6.88E-06,9.10E-05,5.27E-05,-2.98E-05,21:17.9
-6.32E-05,7.44E-06,0.000106,7.38E-05,-9.06E-06,21:17.9
-7.89E-05,7.35E-06,0.00010754,7.74E-05,-1.37E-05,21:17.9
-2.82E-05,2.99E-06,9.00E-05,5.59E-05,-3.77E-05,21:17.9
6.52E-05,4.32E-07,6.17E-05,2.29E-05,-6.50E-05,21:17.9
0.00013812,4.52E-06,4.59E-05,-1.67E-06,-8.58E-05,21:17.9
0.00018363,6.68E-06,3.26E-05,-1.99E-05,-0.00010236,21:17.9
0.00018168,4.66E-06,3.12E-05,-1.65E-05,-9.92E-05,21:17.9
0.00012536,6.60E-06,5.49E-05,6.49E-06,-7.50E-05,21:17.9
5.00E-05,9.11E-06,7.57E-05,2.63E-05,-5.60E-05,21:17.9
-1.65E-05,7.58E-06,9.70E-05,4.98E-05,-3.49E-05,21:17.9
-6.99E-05,1.11E-05,0.00012375,6.55E-05,-1.48E-05,21:17.9
-7.26E-05,1.67E-05,0.00012608,5.99E-05,-1.97E-05,21:17.9
1.00E-06,1.68E-05,0.0001031,4.52E-05,-3.92E-05,21:17.9
7.98E-05,1.64E-05,7.83E-05,1.99E-05,-6.46E-05,21:17.9
0.00013867,1.65E-05,6.02E-05,-1.14E-05,-9.31E-05,21:17.9
0.00019248,1.54E-05,4.93E-05,-2.73E-05,-0.00010466,21:17.9
0.00018726,1.62E-05,5.45E-05,-2.10E-05,-9.73E-05,21:17.9
0.00012825,1.96E-05,7.57E-05,-4.36E-06,-8.20E-05,21:17.9
5.93E-05,2.04E-05,0.00010361,1.84E-05,-5.62E-05,21:17.9
-1.09E-05,2.23E-05,0.00012992,4.44E-05,-2.94E-05,21:18.0
-4.34E-05,2.78E-05,0.00014317,5.67E-05,-1.68E-05,21:18.0
-2.52E-05,2.78E-05,0.00014327,5.33E-05,-1.86E-05,21:18.0
2.28E-05,2.95E-05,0.00012592,3.50E-05,-3.97E-05,21:18.0
0.00010412,3.42E-05,9.42E-05,3.79E-06,-7.05E-05,21:18.0
0.000191,3.50E-05,7.45E-05,-1.90E-05,-9.09E-05,21:18.0
0.0002305,3.63E-05,6.85E-05,-2.99E-05,-0.00010302,21:18.0
0.00022031,3.47E-05,7.28E-05,-3.02E-05,-0.00010269,21:18.0
0.00017414,3.75E-05,9.37E-05,-1.23E-05,-8.22E-05,21:18.0
9.67E-05,4.57E-05,0.00011641,1.27E-05,-5.61E-05,21:18.0
2.85E-05,4.51E-05,0.00013741,3.81E-05,-3.49E-05,21:18.0
-5.62E-06,4.37E-05,0.00015884,5.45E-05,-2.04E-05,21:18.0
-3.49E-06,4.63E-05,0.00015876,4.72E-05,-2.77E-05,21:18.0
5.76E-05,4.69E-05,0.0001335,2.43E-05,-5.45E-05,21:18.0
0.0001528,4.49E-05,0.00010891,-5.39E-06,-7.72E-05,21:18.0
0.00022846,4.40E-05,8.94E-05,-3.24E-05,-9.83E-05,21:18.0
0.00026955,4.83E-05,7.65E-05,-4.30E-05,-0.00011448,21:18.0
0.00026809,5.29E-05,8.82E-05,-3.44E-05,-0.00010638,21:18.0
0.00021305,5.54E-05,0.00011304,-1.23E-05,-8.38E-05,21:18.0
0.00013216,5.82E-05,0.00013833,9.30E-06,-5.55E-05,21:18.0
6.92E-05,6.06E-05,0.00016704,3.05E-05,-2.68E-05,21:18.0
3.07E-05,6.03E-05,0.00018311,4.81E-05,-1.47E-05,21:18.0
4.26E-05,6.24E-05,0.0001755,4.09E-05,-2.25E-05,21:18.0
0.00011552,6.84E-05,0.00015503,1.69E-05,-4.44E-05,21:18.0
0.00019225,6.94E-05,0.00013537,-1.10E-05,-7.08E-05,21:18.0
0.00026541,6.99E-05,0.00011514,-4.18E-05,-9.32E-05,21:18.0
0.00032588,7.68E-05,0.00010342,-5.46E-05,-0.00010463,21:18.0
0.00031547,8.24E-05,0.00011753,-4.36E-05,-0.00010011,21:18.0
0.00025929,8.45E-05,0.00013845,-2.63E-05,-8.25E-05,21:18.0
0.00019773,8.73E-05,0.00015679,-7.44E-06,-5.55E-05,21:18.0
0.0001225,8.89E-05,0.00018288,1.59E-05,-3.10E-05,21:18.0
8.41E-05,8.89E-05,0.00019982,3.11E-05,-1.83E-05,21:18.0
0.00011507,9.09E-05,0.00019554,2.26E-05,-2.22E-05,21:18.0
0.00017207,9.36E-05,0.00017528,-3.37E-06,-4.87E-05,21:18.0
0.00024983,9.19E-05,0.00014993,-3.42E-05,-7.81E-05,21:18.0
0.0003332,9.03E-05,0.00013283,-5.66E-05,-9.72E-05,21:18.0
0.00037184,9.25E-05,0.00012399,-6.45E-05,-0.00011051,21:18.0
0.00035779,9.22E-05,0.00013027,-6.13E-05,-0.00010252,21:18.0
0.0003016,9.23E-05,0.0001555,-4.14E-05,-7.63E-05,21:18.0
0.00023052,9.53E-05,0.00018283,-1.56E-05,-5.26E-05,21:18.0
0.00017142,9.59E-05,0.00020647,-1.04E-06,-3.17E-05,21:18.0
0.00013508,9.59E-05,0.00022115,5.69E-06,-1.69E-05,21:18.0
0.00014443,9.51E-05,0.00021527,-3.25E-06,-2.21E-05,21:18.0
0.00020985,9.13E-05,0.00019554,-2.61E-05,-4.67E-05,21:18.0
0.00030742,8.67E-05,0.00017479,-5.09E-05,-7.32E-05,21:18.0
0.00038168,8.18E-05,0.00015416,-8.20E-05,-9.30E-05,21:18.0
0.00040806,7.97E-05,0.0001391,-9.84E-05,-0.00010656,21:18.0
0.0003973,7.90E-05,0.0001475,-8.43E-05,-9.95E-05,21:18.0
0.00034129,8.02E-05,0.00017263,-6.27E-05,-6.94E-05,21:18.0
0.00026908,8.59E-05,0.00019667,-4.28E-05,-4.57E-05,21:18.0
0.00021018,8.71E-05,0.00022013,-2.26E-05,-2.98E-05,21:18.1
0.00016636,8.21E-05,0.00023222,-1.33E-05,-1.05E-05,21:18.1
0.00018574,7.92E-05,0.00022273,-2.24E-05,-1.82E-05,21:18.1
0.00026515,7.73E-05,0.00019846,-4.67E-05,-4.41E-05,21:18.1
0.00034276,7.08E-05,0.0001723,-7.85E-05,-6.14E-05,21:18.1
0.00040999,6.60E-05,0.0001515,-0.00010636,-8.23E-05,21:18.1
0.0004459,6.64E-05,0.00014037,-0.00011574,-9.00E-05,21:18.1
0.00041907,6.29E-05,0.00014909,-0.00010609,-8.06E-05,21:18.1
0.00036081,5.83E-05,0.00016551,-8.93E-05,-6.58E-05,21:18.1
0.00029364,5.59E-05,0.00018446,-6.80E-05,-3.82E-05,21:18.1
0.00021403,5.24E-05,0.00020931,-4.66E-05,-1.38E-05,21:18.1
0.0001709,5.02E-05,0.00021638,-3.60E-05,9.17E-07,21:18.1
0.00020199,4.31E-05,0.00020555,-4.38E-05,7.92E-07,21:18.1
0.00026142,3.62E-05,0.00018234,-7.40E-05,-2.30E-05,21:18.1
0.00032807,3.60E-05,0.00014723,-0.00010779,-5.06E-05,21:18.1
0.00040407,3.02E-05,0.00012504,-0.00012505,-7.10E-05,21:18.1
0.00043253,2.07E-05,0.00011788,-0.00013088,-7.58E-05,21:18.1
0.00039481,1.40E-05,0.00011892,-0.00012284,-6.04E-05,21:18.1
0.0003248,7.98E-06,0.0001347,-0.00010166,-3.68E-05,21:18.1
0.00024096,3.86E-06,0.00015629,-7.87E-05,-1.28E-05,21:18.1
0.00017202,-8.65E-07,0.00017194,-5.53E-05,8.74E-06,21:18.1
0.00013764,-5.39E-06,0.00017952,-4.28E-05,2.67E-05,21:18.1
0.00014537,-9.19E-06,0.00017281,-5.32E-05,2.64E-05,21:18.1
0.00019901,-1.56E-05,0.00014331,-7.70E-05,3.45E-06,21:18.1
0.0002712,-1.95E-05,0.00010455,-9.86E-05,-2.16E-05,21:18.1
0.00032532,-1.95E-05,7.82E-05,-0.00011392,-4.07E-05,21:18.1
0.00034029,-2.13E-05,6.61E-05,-0.00012143,-4.66E-05,21:18.1
0.00031268,-2.33E-05,6.78E-05,-0.00010893,-3.10E-05,21:18.1
0.000241,-2.47E-05,8.00E-05,-8.11E-05,-6.67E-06,21:18.1
0.00014821,-2.56E-05,9.56E-05,-5.34E-05,1.65E-05,21:18.1
7.07E-05,-2.33E-05,0.00011351,-2.40E-05,4.14E-05,21:18.1
1.94E-05,-2.17E-05,0.00012011,-5.02E-06,5.83E-05,21:18.1
3.04E-05,-2.07E-05,0.00010381,-1.26E-05,5.03E-05,21:18.1
0.00010567,-1.27E-05,7.30E-05,-3.15E-05,2.36E-05,21:18.1
0.00017924,-6.21E-06,4.01E-05,-5.11E-05,-2.37E-06,21:18.1
0.00023144,-7.78E-06,1.04E-05,-7.21E-05,-2.23E-05,21:18.1
0.0002535,-3.45E-06,-7.71E-06,-7.56E-05,-3.23E-05,21:18.1
0.00021263,3.65E-06,-5.43E-07,-5.67E-05,-2.12E-05,21:18.1
0.00013361,3.64E-06,1.70E-05,-3.66E-05,4.65E-06,21:18.1
5.43E-05,5.34E-06,3.04E-05,-1.30E-05,2.66E-05,21:18.1
-2.84E-05,8.98E-06,4.75E-05,1.92E-05,4.63E-05,21:18.1
-7.54E-05,1.22E-05,5.24E-05,3.22E-05,5.78E-05,21:18.1
-4.81E-05,1.28E-05,3.48E-05,2.30E-05,4.53E-05,21:18.1
8.78E-06,1.07E-05,5.95E-06,9.76E-06,2.23E-05,21:18.1
7.19E-05,1.15E-05,-2.57E-05,-1.65E-05,-2.04E-06,21:18.1
0.00013836,9.67E-06,-4.92E-05,-3.94E-05,-2.60E-05,21:18.1
0.00015971,9.58E-06,-6.07E-05,-4.02E-05,-3.62E-05,21:18.1
0.0001245,1.34E-05,-5.80E-05,-3.41E-05,-2.87E-05,21:18.1
5.69E-05,1.19E-05,-4.01E-05,-1.32E-05,-5.26E-06,21:18.1
-2.72E-05,1.31E-05,-1.77E-05,1.76E-05,1.95E-05,21:18.1
-9.36E-05,1.60E-05,3.06E-07,4.01E-05,3.85E-05,21:18.2
-0.00012186,1.30E-05,8.43E-06,5.46E-05,5.34E-05,21:18.2
-0.00010897,1.30E-05,-4.52E-06,4.38E-05,4.04E-05,21:18.2
-4.19E-05,1.44E-05,-3.33E-05,1.44E-05,8.70E-06,21:18.2
4.33E-05,9.45E-06,-5.97E-05,-1.00E-05,-1.47E-05,21:18.2
9.78E-05,6.04E-06,-8.43E-05,-2.85E-05,-3.54E-05,21:18.2
0.00012045,5.38E-06,-9.63E-05,-3.34E-05,-4.48E-05,21:18.2
8.55E-05,3.85E-06,-7.92E-05,-2.37E-05,-3.25E-05,21:18.2
5.67E-06,4.19E-06,-5.33E-05,-1.60E-06,-7.20E-06,21:18.2
-5.52E-05,5.50E-06,-3.59E-05,2.69E-05,1.88E-05,21:18.2
-0.00011491,8.17E-06,-1.61E-05,4.62E-05,3.86E-05,21:18.2
-0.00016119,7.09E-06,-5.05E-07,5.84E-05,5.00E-05,21:18.2
-0.00013246,2.80E-06,-1.46E-05,4.99E-05,3.71E-05,21:18.2
-5.49E-05,5.01E-06,-4.35E-05,1.77E-05,8.62E-06,21:18.2
2.82E-05,7.18E-06,-6.59E-05,-5.43E-06,-1.27E-05,21:18.2
9.32E-05,6.45E-06,-9.08E-05,-2.61E-05,-3.46E-05,21:18.2
0.00011654,4.72E-06,-9.98E-05,-3.88E-05,-4.72E-05,21:18.2
8.43E-05,2.82E-06,-8.60E-05,-2.24E-05,-3.68E-05,21:18.2
8.29E-06,5.51E-06,-6.83E-05,-5.58E-06,-1.08E-05,21:18.2
-6.33E-05,3.70E-06,-4.22E-05,1.67E-05,2.00E-05,21:18.2
-0.00012635,6.54E-07,-1.98E-05,4.71E-05,3.54E-05,21:18.2
-0.00016177,5.35E-06,-1.19E-05,5.27E-05,3.90E-05,21:18.2
-0.00011951,6.33E-06,-1.91E-05,4.35E-05,3.62E-05,21:18.2
-4.88E-05,6.33E-06,-4.69E-05,2.07E-05,1.21E-05,21:18.2
1.87E-05,8.84E-06,-7.17E-05,-1.29E-05,-2.02E-05,21:18.2
9.42E-05,5.63E-06,-8.77E-05,-3.12E-05,-4.22E-05,21:18.2
0.00012064,5.63E-06,-9.98E-05,-3.69E-05,-4.83E-05,21:18.2
7.86E-05,1.00E-05,-8.88E-05,-2.77E-05,-3.57E-05,21:18.2
1.28E-05,1.11E-05,-6.16E-05,-2.58E-06,-1.41E-05,21:18.2
-5.70E-05,1.34E-05,-3.63E-05,2.47E-05,1.06E-05,21:18.2
-0.0001207,1.35E-05,-1.79E-05,4.65E-05,3.30E-05,21:18.2
-0.00014668,1.14E-05,-1.06E-05,5.32E-05,4.10E-05,21:18.2
-0.0001154,1.01E-05,-2.26E-05,3.95E-05,2.62E-05,21:18.2
-4.25E-05,6.49E-06,-4.81E-05,1.36E-05,-8.87E-07,21:18.2
3.78E-05,9.14E-06,-6.67E-05,-8.85E-06,-2.20E-05,21:18.2
9.49E-05,1.33E-05,-8.10E-05,-2.85E-05,-4.19E-05,21:18.2
0.00011839,9.37E-06,-9.11E-05,-4.11E-05,-5.14E-05,21:18.2
8.60E-05,7.53E-06,-7.97E-05,-2.53E-05,-3.45E-05,21:18.2
4.95E-06,8.58E-06,-5.32E-05,5.34E-06,-1.11E-05,21:18.2
-5.98E-05,1.13E-05,-2.70E-05,2.75E-05,1.13E-05,21:18.2
-0.000113,1.43E-05,-3.83E-06,4.59E-05,3.56E-05,21:18.2
-0.00015408,1.07E-05,6.30E-06,5.86E-05,4.23E-05,21:18.2
-0.00011407,1.18E-05,-8.52E-06,4.44E-05,2.69E-05,21:18.2
-2.57E-05,1.35E-05,-3.62E-05,1.14E-05,4.52E-07,21:18.2
4.47E-05,4.25E-06,-6.04E-05,-9.89E-06,-2.72E-05,21:18.2
0.00010034,3.71E-06,-7.79E-05,-2.78E-05,-4.45E-05,21:18.2
0.00012103,1.04E-05,-8.46E-05,-3.80E-05,-4.72E-05,21:18.2
8.24E-05,1.07E-05,-7.37E-05,-1.84E-05,-3.52E-05,21:18.2
1.22E-05,1.34E-05,-4.82E-05,3.42E-06,-1.04E-05,21:18.2
-6.09E-05,1.46E-05,-2.21E-05,2.33E-05,1.80E-05,21:18.2
-0.00013422,1.31E-05,-2.79E-06,5.17E-05,3.90E-05,21:18.3
-0.00016148,1.24E-05,4.71E-06,5.59E-05,4.17E-05,21:18.3
-0.00010826,1.01E-05,-7.76E-06,4.38E-05,2.60E-05,21:18.3
-3.98E-05,9.49E-06,-3.14E-05,2.72E-05,2.86E-06,21:18.3
2.26E-05,5.88E-06,-5.85E-05,-8.86E-06,-2.54E-05,21:18.3
9.32E-05,4.75E-06,-8.49E-05,-2.94E-05,-4.76E-05,21:18.3
0.00011487,5.82E-06,-8.89E-05,-2.61E-05,-4.86E-05,21:18.3
7.29E-05,3.35E-06,-6.71E-05,-2.04E-05,-3.28E-05,21:18.3
1.18E-06,8.28E-06,-3.95E-05,5.63E-06,-6.70E-06,21:18.3
-7.64E-05,1.04E-05,-1.60E-05,3.41E-05,1.71E-05,21:18.3
-0.00013021,5.23E-06,1.73E-06,4.82E-05,3.43E-05,21:18.3
-0.00015163,6.34E-06,1.20E-05,6.07E-05,4.81E-05,21:18.3
-0.00012533,6.58E-06,-8.83E-08,4.72E-05,3.69E-05,21:18.3
-4.33E-05,3.73E-06,-3.01E-05,1.54E-05,4.85E-06,21:18.3
4.05E-05,1.67E-06,-5.29E-05,-6.00E-06,-2.18E-05,21:18.3
8.73E-05,-5.47E-06,-7.20E-05,-2.74E-05,-4.15E-05,21:18.3
0.00010379,-8.86E-06,-8.16E-05,-3.59E-05,-4.73E-05,21:18.3
6.54E-05,-5.58E-06,-6.50E-05,-1.53E-05,-3.09E-05,21:18.3
-2.22E-05,-8.83E-06,-3.80E-05,1.35E-05,-4.64E-06,21:18.3
-9.09E-05,-1.07E-05,-1.60E-05,3.70E-05,1.86E-05,21:18.3
-0.00013898,-9.19E-06,2.01E-06,5.55E-05,3.96E-05,21:18.3
-0.00017109,-1.31E-05,7.73E-06,6.15E-05,4.74E-05,21:18.3
-0.00013246,-1.38E-05,-6.81E-06,4.80E-05,3.00E-05,21:18.3
-4.53E-05,-1.11E-05,-3.01E-05,2.20E-05,6.90E-06,21:18.3
2.80E-05,-1.19E-05,-5.65E-05,-3.72E-06,-1.60E-05,21:18.3
7.95E-05,-1.77E-05,-7.88E-05,-1.98E-05,-3.86E-05,21:18.3
9.59E-05,-2.01E-05,-7.71E-05,-2.21E-05,-4.15E-05,21:18.3
5.27E-05,-1.77E-05,-5.92E-05,-9.52E-06,-2.65E-05,21:18.3
-2.57E-05,-2.18E-05,-4.19E-05,1.45E-05,6.52E-07,21:18.3
-9.51E-05,-2.29E-05,-1.96E-05,3.89E-05,2.85E-05,21:18.3
-0.00015591,-2.11E-05,4.93E-06,5.69E-05,4.32E-05,21:18.3
-0.00018555,-2.49E-05,1.06E-05,6.15E-05,4.72E-05,21:18.3
-0.00013691,-2.41E-05,-8.31E-06,4.68E-05,2.90E-05,21:18.3
-5.93E-05,-2.54E-05,-3.47E-05,1.94E-05,-3.27E-06,21:18.3
6.48E-06,-3.26E-05,-6.03E-05,-9.50E-06,-2.63E-05,21:18.3
7.27E-05,-3.34E-05,-7.83E-05,-2.52E-05,-3.94E-05,21:18.3
8.33E-05,-3.11E-05,-7.90E-05,-2.59E-05,-3.97E-05,21:18.3
2.71E-05,-3.14E-05,-6.42E-05,-1.48E-05,-2.48E-05,21:18.3
-3.81E-05,-3.02E-05,-3.77E-05,1.08E-05,1.14E-06,21:18.3
-0.00011311,-2.92E-05,-1.32E-05,3.66E-05,2.38E-05,21:18.3
-0.00017788,-3.00E-05,9.93E-07,5.43E-05,4.07E-05,21:18.3
-0.00018889,-3.17E-05,1.00E-05,6.28E-05,5.41E-05,21:18.3
-0.00015463,-3.23E-05,-2.77E-06,4.87E-05,3.65E-05,21:18.3
-7.64E-05,-2.81E-05,-3.77E-05,1.76E-05,-1.70E-06,21:18.3
1.62E-05,-3.08E-05,-6.05E-05,-8.78E-06,-2.03E-05,21:18.3
6.29E-05,-4.12E-05,-7.00E-05,-2.46E-05,-3.10E-05,21:18.3
6.99E-05,-3.98E-05,-7.35E-05,-3.05E-05,-4.15E-05,21:18.3
2.86E-05,-3.71E-05,-5.68E-05,-1.48E-05,-2.45E-05,21:18.3
-6.17E-05,-4.08E-05,-3.11E-05,1.46E-05,5.85E-06,21:18.3
-0.00012547,-3.64E-05,-8.00E-06,3.67E-05,2.41E-05,21:18.3
-0.00016698,-3.21E-05,9.03E-06,5.39E-05,4.30E-05,21:18.4
-0.00019891,-3.58E-05,9.42E-06,6.15E-05,4.96E-05,21:18.4
-0.00015843,-3.97E-05,-4.26E-06,4.86E-05,2.98E-05,21:18.4
-6.86E-05,-4.06E-05,-3.14E-05,1.92E-05,4.40E-06,21:18.4
7.43E-06,-4.09E-05,-5.90E-05,-1.13E-05,-2.07E-05,21:18.4
5.75E-05,-4.25E-05,-7.37E-05,-2.55E-05,-3.95E-05,21:18.4
6.71E-05,-4.35E-05,-7.67E-05,-2.34E-05,-3.86E-05,21:18.4
1.80E-05,-4.62E-05,-6.09E-05,-8.10E-06,-2.39E-05,21:18.4
-5.79E-05,-4.49E-05,-3.72E-05,1.60E-05,-1.31E-06,21:18.4
-0.00012201,-3.79E-05,-1.52E-05,3.88E-05,2.69E-05,21:18.4
-0.00018696,-4.34E-05,6.23E-06,5.63E-05,4.61E-05,21:18.4
-0.00020664,-5.04E-05,1.07E-05,5.87E-05,4.59E-05,21:18.4
-0.00014362,-4.34E-05,-3.37E-06,4.41E-05,3.07E-05,21:18.4
-6.99E-05,-4.18E-05,-2.95E-05,1.74E-05,2.64E-06,21:18.4
-2.95E-06,-4.63E-05,-6.15E-05,-1.25E-05,-2.63E-05,21:18.4
5.81E-05,-4.38E-05,-7.65E-05,-2.60E-05,-3.60E-05,21:18.4
6.17E-05,-4.35E-05,-7.12E-05,-2.22E-05,-3.21E-05,21:18.4
1.20E-05,-4.66E-05,-6.05E-05,-1.12E-05,-2.05E-05,21:18.4
-5.84E-05,-4.38E-05,-3.99E-05,1.24E-05,5.22E-06,21:18.4
-0.00013784,-4.10E-05,-1.17E-05,4.15E-05,2.97E-05,21:18.4
-0.00019846,-4.08E-05,8.54E-06,5.80E-05,4.42E-05,21:18.4
-0.00020037,-3.98E-05,1.17E-05,5.76E-05,5.12E-05,21:18.4
-0.00015126,-4.42E-05,-8.93E-06,3.79E-05,3.52E-05,21:18.4
-7.34E-05,-4.49E-05,-3.68E-05,8.73E-06,4.22E-06,21:18.4
1.15E-05,-3.99E-05,-5.66E-05,-1.13E-05,-1.99E-05,21:18.4
5.18E-05,-4.44E-05,-7.65E-05,-2.35E-05,-3.82E-05,21:18.4
4.94E-05,-4.45E-05,-7.79E-05,-2.65E-05,-4.15E-05,21:18.4
6.48E-06,-4.08E-05,-5.22E-05,-9.70E-06,-2.10E-05,21:18.4
-8.06E-05,-4.75E-05,-2.74E-05,1.69E-05,4.13E-06,21:18.4
-0.00014351,-4.52E-05,-8.21E-06,3.82E-05,2.75E-05,21:18.4
-0.00018396,-4.15E-05,9.84E-06,5.66E-05,5.08E-05,21:18.4
-0.00020996,-4.65E-05,1.57E-05,6.25E-05,5.24E-05,21:18.4
-0.00015797,-4.39E-05,-6.34E-07,4.01E-05,2.91E-05,21:18.4
-6.54E-05,-4.26E-05,-3.19E-05,9.50E-06,4.25E-06,21:18.4
2.44E-06,-4.37E-05,-5.38E-05,-1.02E-05,-1.81E-05,21:18.4
4.92E-05,-3.93E-05,-6.35E-05,-2.48E-05,-3.65E-05,21:18.4
5.67E-05,-3.86E-05,-6.51E-05,-2.60E-05,-3.44E-05,21:18.4
4.60E-06,-3.84E-05,-4.55E-05,-6.01E-06,-1.34E-05,21:18.4
-7.26E-05,-3.57E-05,-1.75E-05,1.82E-05,9.98E-06,21:18.4
-0.00013997,-3.60E-05,3.73E-08,3.93E-05,3.29E-05,21:18.4
-0.00019554,-3.97E-05,1.59E-05,5.83E-05,5.20E-05,21:18.4
-0.00020912,-4.34E-05,1.81E-05,5.73E-05,5.16E-05,21:18.4
-0.00015383,-4.36E-05,-4.14E-06,3.86E-05,2.84E-05,21:18.4
-6.93E-05,-4.58E-05,-2.95E-05,1.54E-05,1.41E-06,21:18.4
4.93E-06,-4.73E-05,-5.39E-05,-1.67E-05,-2.08E-05,21:18.4
5.32E-05,-4.01E-05,-6.95E-05,-3.27E-05,-3.63E-05,21:18.4
5.13E-05,-3.60E-05,-6.27E-05,-2.34E-05,-3.50E-05,21:18.4
-2.60E-06,-3.95E-05,-4.81E-05,-9.67E-06,-1.95E-05,21:18.4
-8.22E-05,-3.94E-05,-2.26E-05,1.73E-05,7.65E-06,21:18.4
-0.00016194,-3.57E-05,8.45E-06,4.45E-05,3.55E-05,21:18.4
-0.00020809,-3.59E-05,2.28E-05,5.56E-05,4.81E-05,21:18.5
-0.00020698,-3.96E-05,2.65E-05,5.89E-05,5.02E-05,21:18.5
-0.00016867,-3.86E-05,1.05E-05,3.97E-05,3.47E-05,21:18.5
-8.80E-05,-3.63E-05,-2.33E-05,8.57E-06,3.91E-06,21:18.5
-1.87E-07,-3.69E-05,-4.29E-05,-1.17E-05,-1.88E-05,21:18.5
4.23E-05,-3.45E-05,-5.16E-05,-2.53E-05,-2.76E-05,21:18.5
4.23E-05,-3.51E-05,-5.33E-05,-2.78E-05,-2.73E-05,21:18.5
-3.11E-06,-3.54E-05,-3.39E-05,-1.09E-05,-1.44E-05,21:18.5
-8.80E-05,-2.92E-05,-3.22E-06,2.13E-05,1.64E-05,21:18.5
-0.00016018,-2.80E-05,2.12E-05,4.39E-05,4.40E-05,21:18.5
-0.00020025,-2.97E-05,3.80E-05,5.42E-05,5.46E-05,21:18.5
-0.00020876,-2.78E-05,4.29E-05,5.77E-05,5.16E-05,21:18.5
-0.00015868,-2.94E-05,2.08E-05,3.55E-05,2.77E-05,21:18.5
-6.84E-05,-3.47E-05,-1.04E-05,9.57E-06,4.48E-06,21:18.5
1.07E-07,-3.51E-05,-3.09E-05,-7.50E-06,-1.24E-05,21:18.5
3.97E-05,-3.17E-05,-4.82E-05,-2.62E-05,-3.38E-05,21:18.5
4.41E-05,-2.96E-05,-4.32E-05,-2.29E-05,-2.95E-05,21:18.5
-1.47E-05,-2.92E-05,-1.78E-05,-2.35E-06,-6.89E-06,21:18.5
-9.31E-05,-2.96E-05,2.96E-06,1.87E-05,1.21E-05,21:18.5
-0.0001602,-2.49E-05,2.88E-05,4.55E-05,3.99E-05,21:18.5
-0.00021723,-2.15E-05,5.00E-05,6.26E-05,5.89E-05,21:18.5
-0.00021667,-2.67E-05,4.44E-05,5.90E-05,5.50E-05,21:18.5
-0.00015194,-2.55E-05,2.39E-05,4.01E-05,3.94E-05,21:18.5
-6.81E-05,-2.17E-05,-1.89E-06,1.16E-05,1.12E-05,21:18.5
2.53E-06,-2.63E-05,-2.90E-05,-1.24E-05,-1.88E-05,21:18.5
4.50E-05,-2.50E-05,-4.05E-05,-2.38E-05,-2.90E-05,21:18.5
3.75E-05,-1.96E-05,-3.19E-05,-2.05E-05,-2.20E-05,21:18.5
-2.50E-05,-2.05E-05,-1.39E-05,-1.34E-06,-6.10E-06,21:18.5
-9.50E-05,-1.91E-05,8.76E-06,2.47E-05,2.19E-05,21:18.5
-0.00014023,-3.11E-05,3.02E-05,6.66E-05,3.86E-05,21:18.5
-0.00019982,4.26E-06,6.31E-05,9.64E-05,6.17E-05,21:18.5
-0.00018208,-2.01E-05,4.28E-05,7.74E-05,5.10E-05,21:18.5
-0.00013157,2.16E-06,3.86E-05,6.86E-05,3.83E-05,21:18.5
-5.90E-05,-8.81E-06,-5.11E-08,4.11E-05,6.02E-06,21:18.5
1.72E-05,-1.36E-05,-2.22E-05,2.05E-05,-1.58E-05,21:18.5
5.52E-05,-8.34E-06,-2.61E-05,7.34E-06,-2.48E-05,21:18.5
4.66E-05,-1.57E-05,-3.05E-05,9.40E-06,-2.29E-05,21:18.5
-5.01E-06,-7.15E-06,-8.87E-06,3.39E-05,1.08E-06,21:18.6
-8.64E-05,-3.76E-06,1.40E-05,5.39E-05,2.30E-05,21:18.6
-0.00015471,-7.22E-06,3.40E-05,7.57E-05,4.34E-05,21:18.6
-0.00018564,-3.91E-06,5.07E-05,8.91E-05,6.23E-05,21:18.6
-0.00018578,-3.74E-06,4.19E-05,8.01E-05,5.54E-05,21:18.6
-0.0001426,-7.93E-06,1.66E-05,5.99E-05,2.99E-05,21:18.6
-6.04E-05,-1.21E-05,-7.71E-06,3.72E-05,7.44E-06,21:18.6
1.13E-05,-1.60E-05,-2.75E-05,1.60E-05,-1.33E-05,21:18.6
5.07E-05,-1.42E-05,-4.16E-05,4.90E-09,-3.14E-05,21:18.6
4.16E-05,-7.38E-06,-3.86E-05,4.84E-06,-2.68E-05,21:18.6
-2.36E-05,-5.59E-06,-1.59E-05,2.61E-05,-3.15E-06,21:18.6
-9.08E-05,-4.29E-06,8.86E-06,5.01E-05,2.20E-05,21:18.6
-0.00015287,-3.35E-06,3.03E-05,7.96E-05,4.88E-05,21:18.6
-0.00020661,-5.84E-06,4.61E-05,9.48E-05,6.01E-05,21:18.6
-0.00019603,-3.79E-06,4.10E-05,8.39E-05,5.08E-05,21:18.6
-0.00014201,-3.87E-06,1.95E-05,6.59E-05,3.86E-05,21:18.6
-7.27E-05,-7.79E-06,-1.49E-06,4.74E-05,1.57E-05,21:18.6
6.60E-06,-7.09E-06,-2.58E-05,2.13E-05,-1.23E-05,21:18.6
4.60E-05,-9.70E-06,-4.38E-05,3.22E-06,-2.53E-05,21:18.6
2.39E-05,-1.58E-05,-3.51E-05,1.33E-05,-2.00E-05,21:18.6
-3.55E-05,-1.57E-05,-1.44E-05,3.09E-05,1.86E-06,21:18.6
-0.00010532,-1.31E-05,3.75E-06,5.16E-05,2.83E-05,21:18.6
-0.000177,-1.31E-05,2.67E-05,8.32E-05,5.02E-05,21:18.6
-0.00022263,-1.30E-05,4.35E-05,9.60E-05,6.18E-05,21:18.6
-0.00020706,-1.24E-05,3.87E-05,8.99E-05,5.64E-05,21:18.6
-0.00015315,-1.13E-05,1.67E-05,7.43E-05,4.03E-05,21:18.6
-7.60E-05,-9.27E-06,-1.12E-05,4.08E-05,1.23E-05,21:18.6
8.43E-06,-9.91E-06,-3.15E-05,1.42E-05,-1.93E-05,21:18.6
4.32E-05,-1.06E-05,-4.17E-05,8.68E-06,-2.84E-05,21:18.6
1.99E-05,-7.82E-06,-4.00E-05,1.34E-05,-1.84E-05,21:18.6
-3.95E-05,-1.06E-05,-1.99E-05,3.32E-05,1.98E-06,21:18.6
-0.00012203,-1.27E-05,4.70E-06,6.23E-05,3.11E-05,21:18.6
-0.00018823,-4.20E-06,2.85E-05,8.33E-05,5.64E-05,21:18.6
-0.00021809,-2.30E-06,4.57E-05,9.65E-05,7.01E-05,21:18.6
-0.00021353,-6.81E-06,3.43E-05,9.34E-05,5.85E-05,21:18.6
-0.00015775,-7.14E-06,8.17E-06,6.64E-05,3.19E-05,21:18.6
-7.14E-05,-1.06E-05,-1.58E-05,3.84E-05,1.14E-05,21:18.6
1.49E-06,-9.62E-06,-3.84E-05,1.88E-05,-1.16E-05,21:18.6
4.17E-05,-6.03E-06,-4.81E-05,4.87E-06,-2.29E-05,21:18.6
1.75E-05,-1.09E-05,-4.08E-05,1.22E-05,-1.30E-05,21:18.6
-5.98E-05,-1.27E-05,-1.98E-05,3.70E-05,1.05E-06,21:18.6
-0.00012529,-8.86E-06,6.62E-06,6.08E-05,2.66E-05,21:18.6
-0.00018192,-5.31E-06,2.88E-05,8.69E-05,5.56E-05,21:18.6
-0.00023377,-3.75E-06,4.37E-05,0.00010241,6.42E-05,21:18.6
-0.00021976,-5.99E-06,3.66E-05,8.91E-05,5.45E-05,21:18.6
-0.00014726,-7.44E-06,9.46E-06,7.17E-05,3.27E-05,21:18.6
-7.29E-05,-7.87E-06,-1.47E-05,5.06E-05,6.01E-06,21:18.6
-3.30E-06,-8.31E-06,-3.61E-05,1.81E-05,-1.28E-05,21:18.6
3.80E-05,-8.07E-06,-4.86E-05,1.02E-05,-1.92E-05,21:18.6
1.12E-05,-8.48E-06,-3.74E-05,2.15E-05,-1.36E-05,21:18.6
-5.75E-05,-9.10E-06,-1.68E-05,3.92E-05,6.00E-06,21:18.7
-0.00013136,-8.73E-06,6.02E-06,7.13E-05,3.23E-05,21:18.7
-0.00020794,-7.85E-06,2.54E-05,8.94E-05,5.32E-05,21:18.7
-0.0002461,-1.01E-05,3.19E-05,9.46E-05,6.48E-05,21:18.7
-0.00022142,-1.12E-05,3.13E-05,9.50E-05,6.01E-05,21:18.7
-0.00017268,-1.13E-05,1.02E-05,7.25E-05,4.09E-05,21:18.7
-9.74E-05,-1.62E-05,-2.44E-05,4.29E-05,1.56E-05,21:18.7
-1.23E-05,-1.63E-05,-4.35E-05,2.01E-05,-1.22E-05,21:18.7
1.59E-05,-1.51E-05,-5.40E-05,9.10E-06,-2.55E-05,21:18.7
-1.28E-05,-1.73E-05,-4.99E-05,1.48E-05,-1.62E-05,21:18.7
-7.55E-05,-1.14E-05,-2.45E-05,3.41E-05,7.23E-06,21:18.7
-0.0001561,-5.65E-06,-4.67E-07,6.75E-05,3.38E-05,21:18.7
-0.00021901,-5.98E-06,2.11E-05,9.15E-05,5.19E-05,21:18.7
-0.00024913,-5.15E-06,3.62E-05,9.87E-05,6.37E-05,21:18.7
-0.00023288,-5.13E-06,2.61E-05,9.45E-05,5.91E-05,21:18.7
-0.00016747,-5.44E-06,3.28E-07,6.90E-05,3.39E-05,21:18.7
-9.24E-05,-7.88E-06,-2.17E-05,4.35E-05,1.07E-05,21:18.7
-2.95E-05,-1.05E-05,-4.55E-05,2.77E-05,-9.96E-06,21:18.7
5.26E-06,-1.10E-05,-6.17E-05,1.64E-05,-2.28E-05,21:18.7
-2.56E-05,-1.64E-05,-4.66E-05,2.46E-05,-1.01E-05,21:18.7
-9.47E-05,-1.64E-05,-2.24E-05,4.47E-05,1.33E-05,21:18.7
-0.00015632,-8.66E-06,-4.37E-06,6.79E-05,3.45E-05,21:18.7
-0.00022351,-7.41E-06,2.08E-05,9.16E-05,5.74E-05,21:18.7
-0.00027357,-9.51E-06,3.49E-05,0.00010502,7.08E-05,21:18.7
-0.00025954,-1.28E-05,2.65E-05,0.000101,6.06E-05,21:18.7
-0.00018782,-1.40E-05,6.30E-06,7.62E-05,3.85E-05,21:18.7
-9.83E-05,-9.05E-06,-2.32E-05,4.59E-05,1.39E-05,21:18.7
-3.07E-05,-1.16E-05,-5.12E-05,2.58E-05,-1.54E-05,21:18.7
-2.08E-06,-1.70E-05,-6.19E-05,1.80E-05,-2.35E-05,21:18.7
-2.66E-05,-1.32E-05,-4.85E-05,2.66E-05,-4.99E-06,21:18.7
-9.81E-05,-1.14E-05,-2.43E-05,4.90E-05,1.45E-05,21:18.7
-0.00017565,-1.27E-05,-3.00E-06,7.48E-05,3.69E-05,21:18.7
-0.00024825,-1.16E-05,2.17E-05,9.61E-05,6.13E-05,21:18.7
-0.00028838,-9.79E-06,3.56E-05,0.00010811,7.37E-05,21:18.7
-0.00025511,-8.66E-06,2.38E-05,0.00010268,6.35E-05,21:18.7
-0.00019058,-1.19E-05,1.36E-06,7.67E-05,3.58E-05,21:18.7
-0.00012188,-1.58E-05,-2.39E-05,4.66E-05,9.56E-06,21:18.7
-4.56E-05,-1.64E-05,-4.70E-05,2.68E-05,-1.15E-05,21:18.7
-1.85E-05,-1.45E-05,-5.97E-05,1.94E-05,-2.19E-05,21:18.7
-5.04E-05,-1.05E-05,-5.52E-05,2.67E-05,-1.25E-05,21:18.7
-0.00010809,-1.08E-05,-2.86E-05,4.79E-05,1.55E-05,21:18.7
-0.00018935,-1.36E-05,-9.03E-07,7.43E-05,4.36E-05,21:18.7
-0.00026382,-1.40E-05,1.79E-05,9.64E-05,5.79E-05,21:18.7
-0.00029588,-1.39E-05,3.18E-05,0.00010941,6.90E-05,21:18.7
-0.0002734,-1.11E-05,2.11E-05,9.99E-05,6.25E-05,21:18.7
-0.00020349,-1.14E-05,-7.73E-06,7.16E-05,3.39E-05,21:18.7
-0.00012357,-1.54E-05,-3.08E-05,4.96E-05,1.11E-05,21:18.7
-5.95E-05,-1.56E-05,-4.77E-05,3.18E-05,-7.45E-06,21:18.7
-2.86E-05,-1.60E-05,-5.65E-05,2.11E-05,-2.01E-05,21:18.7
-5.68E-05,-1.71E-05,-5.10E-05,3.48E-05,-8.37E-06,21:18.7
-0.00012924,-1.57E-05,-2.82E-05,5.92E-05,1.66E-05,21:18.8
-0.00019829,-1.14E-05,2.25E-06,8.40E-05,4.00E-05,21:18.8
-0.00025593,-6.05E-06,2.47E-05,0.00011008,6.31E-05,21:18.8
-0.0002913,-4.48E-06,3.69E-05,0.0001199,7.26E-05,21:18.8
-0.00026059,1.92E-06,3.24E-05,0.00010781,6.03E-05,21:18.8
-0.00018166,1.27E-05,1.17E-05,8.90E-05,3.99E-05,21:18.8
-0.0001026,1.43E-05,-9.75E-06,6.66E-05,1.33E-05,21:18.8
-2.93E-05,1.61E-05,-2.99E-05,4.80E-05,-1.06E-05,21:18.8
6.73E-06,2.36E-05,-3.89E-05,4.86E-05,-1.51E-05,21:18.8
-2.92E-05,2.60E-05,-2.34E-05,6.27E-05,-5.18E-06,21:18.8
-9.86E-05,2.64E-05,-4.18E-06,8.68E-05,1.59E-05,21:18.8
-0.0001702,2.89E-05,1.34E-05,0.00011665,4.40E-05,21:18.8
-0.00023868,3.04E-05,4.08E-05,0.00013947,6.17E-05,21:18.8
-0.00026637,2.85E-05,5.64E-05,0.00015267,6.65E-05,21:18.8
-0.00023834,2.93E-05,4.32E-05,0.00014369,6.24E-05,21:18.8
-0.0001641,3.89E-05,1.82E-05,0.00011901,4.12E-05,21:18.8
-7.29E-05,4.70E-05,-9.51E-07,0.00010009,1.53E-05,21:18.8
-1.39E-05,4.99E-05,-1.66E-05,8.10E-05,8.99E-07,21:18.8
3.07E-06,4.89E-05,-2.66E-05,7.17E-05,-6.82E-06,21:18.8
-2.32E-05,4.28E-05,-1.50E-05,8.15E-05,-5.25E-07,21:18.8
-8.53E-05,4.42E-05,1.12E-05,9.97E-05,2.41E-05,21:18.8
-0.00015652,5.57E-05,3.41E-05,0.00012278,5.31E-05,21:18.8
-0.00021733,6.71E-05,5.55E-05,0.00014123,8.20E-05,21:18.8
-0.00024393,7.16E-05,6.99E-05,0.00015175,9.91E-05,21:18.8
-0.0002213,6.77E-05,5.68E-05,0.00013996,8.83E-05,21:18.8
-0.00014117,6.53E-05,2.66E-05,9.74E-05,5.94E-05,21:18.8
-4.57E-05,7.43E-05,6.06E-06,6.54E-05,3.49E-05,21:18.8
1.27E-05,8.56E-05,-8.38E-06,4.93E-05,2.28E-05,21:18.8
3.89E-05,8.09E-05,-1.98E-05,2.82E-05,1.52E-05,21:18.8
1.64E-06,6.89E-05,-1.27E-05,2.47E-05,2.25E-05,21:18.8
-9.05E-05,6.17E-05,1.20E-05,4.18E-05,4.91E-05,21:18.8
-0.00016107,4.67E-05,3.32E-05,6.22E-05,6.62E-05,21:18.8
-0.00022183,3.01E-05,4.51E-05,8.37E-05,7.86E-05,21:18.8
-0.00026868,2.97E-05,5.43E-05,9.38E-05,9.21E-05,21:18.8
-0.00023855,3.11E-05,4.10E-05,8.09E-05,8.36E-05,21:18.8
-0.00016059,2.43E-05,6.60E-06,5.51E-05,6.59E-05,21:18.8
-9.49E-05,2.16E-05,-2.16E-05,3.05E-05,4.73E-05,21:18.8
-4.22E-05,1.90E-05,-4.69E-05,1.45E-05,2.10E-05,21:18.8
-2.31E-05,1.05E-05,-5.74E-05,1.06E-05,6.13E-06,21:18.8
-7.78E-05,1.04E-06,-4.57E-05,2.50E-05,9.01E-06,21:18.8
-0.00016686,-9.40E-06,-2.58E-05,5.69E-05,2.72E-05,21:18.8
-0.00024226,-1.72E-05,2.84E-06,8.69E-05,5.58E-05,21:18.8
-0.00031258,-2.09E-05,1.84E-05,0.0001073,7.17E-05,21:18.8
-0.00034462,-2.31E-05,1.43E-05,0.00011449,7.25E-05,21:18.8
-0.00030728,-2.46E-05,5.43E-06,9.97E-05,6.35E-05,21:18.8
-0.00023486,-2.79E-05,-1.94E-05,7.73E-05,3.72E-05,21:18.8
-0.0001569,-3.05E-05,-4.87E-05,5.50E-05,9.41E-06,21:18.8
-9.68E-05,-3.30E-05,-6.41E-05,3.18E-05,-1.05E-05,21:18.8
-8.39E-05,-3.75E-05,-7.23E-05,2.25E-05,-2.12E-05,21:18.8
-0.00012523,-3.90E-05,-6.81E-05,3.29E-05,-4.80E-06,21:18.8
-0.00019458,-3.64E-05,-4.16E-05,5.66E-05,2.61E-05,21:18.9
-0.00026801,-3.74E-05,-1.13E-05,8.52E-05,4.93E-05,21:18.9
-0.00033575,-3.84E-05,3.49E-06,0.00011124,6.75E-05,21:18.9
-0.00036297,-3.28E-05,1.20E-05,0.00011951,7.62E-05,21:18.9
-0.00032963,-3.37E-05,1.06E-06,0.00010016,6.28E-05,21:18.9
-0.00024924,-4.16E-05,-3.30E-05,7.09E-05,3.13E-05,21:18.9
-0.00016374,-4.32E-05,-5.28E-05,4.65E-05,5.22E-06,21:18.9
-0.00011794,-4.27E-05,-6.64E-05,3.03E-05,-1.03E-05,21:18.9
-0.00010237,-4.50E-05,-7.85E-05,2.72E-05,-1.70E-05,21:18.9
-0.00014139,-4.64E-05,-5.99E-05,4.14E-05,-2.49E-07,21:18.9
-0.0002269,-4.60E-05,-3.37E-05,6.64E-05,2.58E-05,21:18.9
-0.00028488,-4.63E-05,-1.67E-05,8.68E-05,4.43E-05,21:18.9
-0.0003409,-4.62E-05,4.36E-06,0.00010845,6.34E-05,21:18.9
-0.00037918,-4.43E-05,1.23E-05,0.00012084,7.04E-05,21:18.9
-0.00034242,-4.45E-05,-5.48E-06,0.00010166,5.59E-05,21:18.9
-0.00025813,-4.78E-05,-3.02E-05,7.76E-05,3.43E-05,21:18.9
-0.00017722,-4.93E-05,-5.46E-05,5.70E-05,7.36E-06,21:18.9
-0.00013953,-4.96E-05,-7.93E-05,3.36E-05,-1.77E-05,21:18.9
-9.10E-05,-4.96E-05,-8.12E-05,3.28E-05,-1.90E-05,21:18.9
-8.52E-05,-4.55E-05,-6.11E-05,4.81E-05,2.02E-06,21:18.9
-0.00020286,-4.38E-05,-3.82E-05,6.74E-05,2.71E-05,21:18.9
-0.00029488,-4.29E-05,-1.12E-05,9.63E-05,5.14E-05,21:18.9
-0.00033767,-3.88E-05,6.59E-06,0.0001177,6.89E-05,21:18.9
-0.00037001,-4.09E-05,9.05E-06,0.00011965,6.86E-05,21:18.9
-0.00032801,-4.73E-05,4.83E-06,0.00011917,4.84E-05,21:18.9
-0.00025939,-7.15E-05,-4.24E-06,0.00013148,-2.87E-06,21:18.9
-0.00020715,-0.00011459,-1.02E-05,0.00014321,-7.32E-05,21:18.9
-0.00017406,-0.00015036,-5.69E-06,0.00016455,-0.00012723,21:18.9
-0.00018229,-0.00019101,1.35E-05,0.00019953,-0.00016337,21:18.9
-0.00023322,-0.00023235,4.41E-05,0.00023047,-0.00018243,21:18.9
-0.00032761,-0.00025939,9.27E-05,0.00029869,-0.00018816,21:18.9
-0.00041419,-0.00026552,0.00015159,0.00036824,-0.00018261,21:18.9
-0.00042916,-0.00021615,0.00020001,0.00038622,-0.0001675,21:18.9
-0.00040572,-0.00014325,0.00023173,0.00040787,-0.00015701,21:18.9
-0.00035668,-8.86E-05,0.00019244,0.00041852,-0.00013305,21:18.9
-0.00026366,-2.11E-05,9.37E-05,0.00042138,-0.00010564,21:18.9
-0.00017726,8.32E-05,1.41E-05,0.00043317,-6.52E-05,21:18.9
-7.47E-05,0.00025352,-6.36E-05,0.00041506,2.19E-05,21:18.9
3.17E-05,0.00047392,-0.00013578,0.00039495,0.00011523,21:18.9
7.80E-05,0.00067861,-0.00018813,0.00032309,0.00023079,21:18.9
0.00015006,0.00087816,-0.00023081,0.00014579,0.00037767,21:18.9
0.00025497,0.0011075,-0.00022674,-6.34E-05,0.00049636,21:18.9
0.00035471,0.0013098,-0.0002125,-0.00026393,0.00058716,21:18.9
0.00049959,0.0014116,-0.00022389,-0.00049155,0.00064335,21:18.9
0.00070597,0.001484,-0.00022209,-0.00073561,0.0006566,21:18.9
0.00092847,0.0015159,-0.00020825,-0.00089302,0.00063597,21:18.9
0.0010561,0.0013943,-0.00018695,-0.0010213,0.00057569,21:18.9
0.0011152,0.0012791,-0.00018031,-0.0011731,0.00051856,21:18.9
0.0011044,0.0011725,-0.00018453,-0.0012148,0.00049394,21:18.9
0.00092057,0.00087843,-0.00014772,-0.0011646,0.00046933,21:18.9
0.00065055,0.00055901,-0.00017264,-0.0010159,0.00045654,21:19.0
0.00026269,0.00029889,-0.00032864,-0.0007523,0.00048894,21:19.0
-0.00018896,5.21E-05,-0.00044276,-0.00054309,0.00050292,21:19.0
-0.00040202,-7.61E-05,-0.00042578,-0.00040304,0.00044879,21:19.0
-0.00040816,-0.00012101,-0.0003582,-0.00030248,0.00036456,21:19.0
-0.00032112,-0.00011869,-0.00028828,-0.00027061,0.00026602,21:19.0
-0.00017023,-5.74E-05,-0.00022878,-0.00024294,0.00017754,21:19.0
-9.09E-05,-2.82E-05,-0.00017727,-0.00020184,0.00010992,21:19.0
-8.58E-05,-4.36E-05,-0.00012842,-0.00016085,4.99E-05,21:19.0
-0.00010116,-3.94E-05,-8.33E-05,-0.00011525,4.01E-05,21:19.0
-0.00013087,3.79E-06,-2.23E-05,-6.58E-05,6.45E-05,21:19.0
-0.00015966,4.83E-05,4.10E-05,-6.79E-06,7.38E-05,21:19.0
-0.0001835,7.03E-05,8.19E-05,3.61E-05,8.23E-05,21:19.0
-0.00018292,7.47E-05,0.00010674,5.08E-05,7.91E-05,21:19.0
-0.00015346,5.47E-05,9.61E-05,4.56E-05,5.29E-05,21:19.0
-9.29E-05,3.26E-05,5.87E-05,2.43E-05,2.39E-05,21:19.0
-2.41E-05,2.13E-05,3.17E-05,7.35E-06,-4.25E-06,21:19.0
1.08E-05,1.01E-05,1.40E-05,-1.64E-06,-2.64E-05,21:19.0
1.36E-05,6.83E-06,1.26E-05,-3.31E-07,-2.94E-05,21:19.0
-3.90E-05,3.41E-06,3.07E-05,2.58E-05,-1.53E-05,21:19.0
-0.00013358,-5.74E-06,5.47E-05,5.86E-05,4.10E-06,21:19.0
-0.00019872,-8.95E-06,8.23E-05,8.26E-05,2.57E-05,21:19.0
-0.00024697,-1.19E-05,0.00010379,0.00010457,4.39E-05,21:19.0
-0.0002754,-1.64E-05,0.00010456,0.00011006,4.19E-05,21:19.0
-0.00022907,-1.49E-05,8.53E-05,9.27E-05,1.93E-05,21:19.0
-0.00014441,-1.77E-05,6.42E-05,7.07E-05,-3.53E-06,21:19.0
-7.27E-05,-2.30E-05,4.44E-05,4.93E-05,-2.56E-05,21:19.0
-2.03E-05,-2.11E-05,2.38E-05,3.34E-05,-4.84E-05,21:19.0
-1.96E-05,-2.66E-05,2.43E-05,3.59E-05,-4.89E-05,21:19.0
-7.40E-05,-2.99E-05,4.38E-05,5.65E-05,-3.22E-05,21:19.0
-0.00013764,-2.09E-05,6.75E-05,8.05E-05,-1.33E-05,21:19.0
-0.00020124,-2.09E-05,9.71E-05,0.00010273,1.28E-05,21:19.0
-0.00026338,-2.38E-05,0.00011372,0.00012609,3.02E-05,21:19.0
-0.00027759,-2.19E-05,0.00010829,0.00013065,2.88E-05,21:19.0
-0.00022168,-2.14E-05,9.27E-05,0.00010855,1.71E-05,21:19.0
-0.00013431,-2.03E-05,6.74E-05,8.20E-05,-1.01E-05,21:19.0
-5.75E-05,-2.26E-05,3.92E-05,5.80E-05,-4.09E-05,21:19.0
-8.88E-06,-2.45E-05,2.45E-05,4.32E-05,-5.09E-05,21:19.0
-8.50E-06,-2.40E-05,2.89E-05,4.64E-05,-4.83E-05,21:19.0
-6.25E-05,-2.68E-05,4.67E-05,6.35E-05,-3.66E-05,21:19.0
-0.00013747,-2.65E-05,7.09E-05,9.18E-05,-7.07E-06,21:19.0
-0.00020729,-2.16E-05,9.59E-05,0.00011589,1.56E-05,21:19.0
-0.00025184,-1.88E-05,0.00011439,0.0001255,2.51E-05,21:19.0
-0.0002505,-1.86E-05,0.00011774,0.00012793,2.89E-05,21:19.0
-0.0002093,-1.71E-05,9.96E-05,0.00011244,9.22E-06,21:19.0
-0.00012905,-1.76E-05,7.06E-05,7.96E-05,-2.16E-05,21:19.0
-3.65E-05,-2.11E-05,4.78E-05,5.20E-05,-4.36E-05,21:19.0
1.46E-05,-1.91E-05,3.77E-05,3.61E-05,-5.74E-05,21:19.0
1.41E-05,-1.64E-05,4.11E-05,3.49E-05,-5.77E-05,21:19.0
-3.53E-05,-1.62E-05,5.73E-05,5.38E-05,-4.33E-05,21:19.0
-0.00011653,-1.06E-05,8.42E-05,8.15E-05,-1.68E-05,21:19.1
-0.00018499,-5.97E-06,0.00011077,0.00010421,6.43E-06,21:19.1
-0.00022855,-6.18E-06,0.00012901,0.00012162,2.04E-05,21:19.1
-0.00023452,-8.54E-06,0.00013134,0.00012122,2.21E-05,21:19.1
-0.00017012,-1.04E-05,0.00011215,9.54E-05,-1.40E-06,21:19.1
-8.01E-05,-7.34E-06,8.85E-05,7.20E-05,-2.62E-05,21:19.1
-1.79E-05,-8.59E-06,6.62E-05,5.24E-05,-4.62E-05,21:19.1
3.42E-05,-1.25E-05,5.22E-05,2.94E-05,-7.04E-05,21:19.1
3.91E-05,-1.02E-05,6.22E-05,3.07E-05,-6.99E-05,21:19.1
-2.35E-05,-7.43E-06,8.20E-05,4.98E-05,-4.68E-05,21:19.1
-8.76E-05,-6.20E-06,0.00010531,6.86E-05,-1.97E-05,21:19.1
-0.0001511,-6.08E-06,0.00013262,9.56E-05,6.44E-06,21:19.1
-0.00020614,-3.26E-06,0.00014835,0.00011758,1.71E-05,21:19.1
-0.00019851,1.94E-06,0.00014493,0.00011269,1.10E-05,21:19.1
-0.00014271,4.43E-06,0.00012689,8.88E-05,-4.28E-06,21:19.1
-6.24E-05,8.07E-06,0.0001031,6.26E-05,-2.95E-05,21:19.1
2.62E-05,7.33E-06,7.53E-05,3.44E-05,-5.76E-05,21:19.1
7.28E-05,2.55E-06,6.11E-05,1.79E-05,-7.10E-05,21:19.1
5.89E-05,2.08E-06,7.22E-05,2.52E-05,-6.78E-05,21:19.1
1.06E-05,1.09E-06,9.06E-05,4.39E-05,-5.08E-05,21:19.1
-5.48E-05,1.59E-06,0.00011504,6.92E-05,-2.35E-05,21:19.1
-0.00013063,4.90E-06,0.0001402,9.05E-05,-4.32E-06,21:19.1
-0.00017575,5.30E-06,0.00015605,0.00010113,9.66E-06,21:19.1
-0.00016069,6.08E-06,0.00016198,0.00010147,1.58E-05,21:19.1
-0.0001109,9.97E-06,0.00014509,7.87E-05,-3.92E-06,21:19.1
-3.21E-05,1.11E-05,0.000115,4.45E-05,-3.51E-05,21:19.1
5.48E-05,8.80E-06,9.41E-05,1.76E-05,-6.22E-05,21:19.1
9.74E-05,1.07E-05,8.41E-05,2.10E-06,-7.97E-05,21:19.1
9.03E-05,1.23E-05,8.64E-05,6.43E-06,-7.72E-05,21:19.1
4.49E-05,1.05E-05,0.00010443,2.39E-05,-5.56E-05,21:19.1
-2.66E-05,1.20E-05,0.00012966,4.70E-05,-2.99E-05,21:19.1
-9.60E-05,1.40E-05,0.00015255,7.46E-05,-9.78E-06,21:19.1
-0.00013708,1.76E-05,0.00017241,9.08E-05,7.50E-06,21:19.1
-0.00013165,2.01E-05,0.00017528,8.30E-05,8.69E-06,21:19.1
-6.81E-05,1.83E-05,0.00015363,5.74E-05,-1.50E-05,21:19.1
2.80E-05,2.11E-05,0.00012925,3.12E-05,-4.71E-05,21:19.1
9.98E-05,2.19E-05,0.00010924,8.53E-06,-7.26E-05,21:19.1
0.00014258,1.89E-05,9.33E-05,-1.08E-05,-8.32E-05,21:19.1
0.00013784,2.27E-05,0.0001009,-7.82E-06,-7.41E-05,21:19.1
6.90E-05,2.65E-05,0.00012634,1.51E-05,-5.23E-05,21:19.1
1.36E-05,2.81E-05,0.00014591,3.69E-05,-3.23E-05,21:19.1
-3.37E-05,2.90E-05,0.00016921,5.77E-05,-1.25E-05,21:19.1
-9.20E-05,2.75E-05,0.00019393,6.73E-05,4.07E-06,21:19.1
-7.53E-05,2.91E-05,0.00019037,5.66E-05,-2.98E-06,21:19.1
-1.94E-06,3.22E-05,0.0001672,3.92E-05,-2.40E-05,21:19.1
7.35E-05,3.48E-05,0.00014481,1.39E-05,-4.51E-05,21:19.1
0.00015494,3.65E-05,0.00012198,-1.54E-05,-6.84E-05,21:19.1
0.00019992,3.55E-05,0.00011301,-2.75E-05,-7.96E-05,21:19.1
0.00018715,3.68E-05,0.00012495,-2.48E-05,-7.47E-05,21:19.1
0.00014053,3.96E-05,0.00014302,-1.25E-05,-5.80E-05,21:19.1
7.17E-05,4.20E-05,0.00017063,1.21E-05,-2.90E-05,21:19.2
4.31E-06,4.51E-05,0.00019984,3.48E-05,-5.71E-06,21:19.2
-2.83E-05,4.66E-05,0.00020954,4.49E-05,3.41E-06,21:19.2
-1.30E-05,4.76E-05,0.0002092,4.02E-05,1.31E-06,21:19.2
5.14E-05,4.68E-05,0.00019515,1.84E-05,-1.54E-05,21:19.2
0.00014488,4.47E-05,0.00016377,-1.44E-05,-4.51E-05,21:19.2
0.00021459,4.23E-05,0.00014409,-4.14E-05,-7.32E-05,21:19.2
0.0002399,3.80E-05,0.00014115,-4.94E-05,-8.03E-05,21:19.2
0.00023268,3.85E-05,0.00014666,-4.87E-05,-7.41E-05,21:19.2
0.0001854,4.15E-05,0.00016347,-3.57E-05,-5.99E-05,21:19.2
0.00011031,3.94E-05,0.0001896,-5.89E-06,-3.35E-05,21:19.2
4.59E-05,4.08E-05,0.00021795,1.30E-05,-1.09E-05,21:19.2
1.30E-05,4.23E-05,0.00023286,2.41E-05,4.67E-06,21:19.2
1.87E-05,3.46E-05,0.00022665,1.84E-05,4.28E-06,21:19.2
7.86E-05,3.14E-05,0.00020629,-1.48E-05,-1.69E-05,21:19.2
0.00017551,3.81E-05,0.00018008,-4.07E-05,-4.55E-05,21:19.2
0.00025301,3.58E-05,0.0001588,-6.63E-05,-7.30E-05,21:19.2
0.00029187,2.58E-05,0.00014935,-7.51E-05,-8.01E-05,21:19.2
0.00027674,2.90E-05,0.00014973,-4.99E-05,-7.22E-05,21:19.2
0.00019211,4.16E-05,0.00016483,-3.17E-05,-5.81E-05,21:19.2
0.00010128,5.00E-05,0.00019326,-6.88E-06,-3.44E-05,21:19.2
5.61E-05,4.03E-05,0.00021827,1.60E-05,-7.02E-06,21:19.2
3.78E-05,1.43E-05,0.00023418,7.51E-06,1.59E-05,21:19.2
5.31E-05,3.75E-06,0.00022921,-6.81E-06,1.28E-05,21:19.2
0.0001165,6.11E-06,0.00020252,-2.64E-05,-3.67E-06,21:19.2
0.00019396,1.00E-06,0.00017628,-5.31E-05,-2.55E-05,21:19.2
0.00026353,-5.23E-06,0.00015078,-7.91E-05,-5.69E-05,21:19.2
0.00030291,-9.70E-06,0.00013712,-9.46E-05,-6.12E-05,21:19.2
0.00027979,-1.43E-05,0.00014352,-8.60E-05,-4.95E-05,21:19.2
0.00022097,-1.96E-05,0.0001568,-6.81E-05,-3.49E-05,21:19.2
0.0001507,-1.94E-05,0.00018125,-4.42E-05,-2.05E-06,21:19.2
7.42E-05,-1.82E-05,0.00019929,-1.89E-05,2.03E-05,21:19.2
3.05E-05,-2.53E-05,0.00019998,-1.11E-05,2.98E-05,21:19.2
3.98E-05,-2.97E-05,0.00019588,-1.58E-05,3.46E-05,21:19.2
0.00010099,-3.53E-05,0.00017204,-3.46E-05,1.62E-05,21:19.2
0.0001869,-4.29E-05,0.0001355,-6.61E-05,-1.04E-05,21:19.2
0.00024556,-4.38E-05,0.00011015,-8.37E-05,-2.90E-05,21:19.2
0.00026086,-5.44E-05,9.66E-05,-8.40E-05,-3.79E-05,21:19.2
0.00023305,-6.55E-05,9.73E-05,-7.91E-05,-2.23E-05,21:19.2
0.00016794,-6.05E-05,0.00011074,-6.05E-05,4.58E-06,21:19.2
8.32E-05,-5.78E-05,0.0001297,-3.14E-05,2.41E-05,21:19.2
6.63E-06,-5.94E-05,0.00014566,-4.58E-06,4.75E-05,21:19.2
-4.08E-05,-6.17E-05,0.00015161,1.48E-05,6.49E-05,21:19.2
-4.55E-05,-6.32E-05,0.00013867,1.10E-05,5.79E-05,21:19.2
1.56E-05,-5.80E-05,0.00010396,-1.34E-05,3.65E-05,21:19.2
9.27E-05,-6.05E-05,7.39E-05,-3.70E-05,1.32E-05,21:19.2
0.00014201,-6.33E-05,5.12E-05,-5.44E-05,-9.41E-06,21:19.2
0.00017534,-5.57E-05,2.86E-05,-5.97E-05,-2.05E-05,21:19.2
0.00014019,-5.35E-05,3.02E-05,-4.34E-05,-9.24E-06,21:19.2
5.39E-05,-5.54E-05,4.32E-05,-1.50E-05,9.34E-06,21:19.2
-1.21E-05,-5.36E-05,5.61E-05,9.18E-06,3.07E-05,21:19.3
-8.37E-05,-4.97E-05,7.85E-05,3.40E-05,6.00E-05,21:19.3
-0.00013991,-4.76E-05,8.01E-05,5.17E-05,7.00E-05,21:19.3
-0.00012003,-4.21E-05,5.84E-05,4.30E-05,5.63E-05,21:19.3
-5.83E-05,-3.49E-05,3.46E-05,2.59E-05,4.00E-05,21:19.3
4.10E-06,-3.54E-05,2.94E-06,6.14E-06,1.44E-05,21:19.3
6.87E-05,-3.39E-05,-2.41E-05,-1.89E-05,-1.08E-05,21:19.3
9.03E-05,-3.57E-05,-3.63E-05,-2.30E-05,-1.85E-05,21:19.3
4.42E-05,-4.16E-05,-3.44E-05,-8.61E-06,-1.23E-05,21:19.3
-9.81E-06,-3.47E-05,-1.54E-05,1.02E-05,1.05E-05,21:19.3
-7.42E-05,-3.04E-05,1.39E-06,3.37E-05,3.69E-05,21:19.3
-0.00015648,-3.33E-05,1.30E-05,5.60E-05,5.18E-05,21:19.3
-0.00018575,-2.82E-05,2.04E-05,7.01E-05,5.92E-05,21:19.3
-0.00016159,-2.38E-05,6.28E-06,6.30E-05,5.15E-05,21:19.3
-0.00010371,-2.41E-05,-1.77E-05,3.88E-05,2.50E-05,21:19.3
-2.24E-05,-2.92E-05,-4.54E-05,1.16E-05,-5.38E-06,21:19.3
2.77E-05,-3.86E-05,-7.45E-05,-8.29E-06,-2.52E-05,21:19.3
5.08E-05,-3.43E-05,-8.06E-05,-1.12E-05,-3.18E-05,21:19.3
3.91E-05,-2.85E-05,-7.11E-05,-4.72E-06,-2.52E-05,21:19.3
-3.17E-05,-3.43E-05,-5.58E-05,1.32E-05,-3.72E-06,21:19.3
-0.00010741,-3.03E-05,-2.97E-05,4.01E-05,2.18E-05,21:19.3
-0.0001702,-2.23E-05,-1.01E-05,5.83E-05,4.11E-05,21:19.3
-0.00020726,-2.38E-05,-3.34E-06,6.90E-05,5.21E-05,21:19.3
-0.00018401,-2.69E-05,-1.10E-05,6.32E-05,4.29E-05,21:19.3
-0.00012147,-3.03E-05,-3.73E-05,3.75E-05,1.29E-05,21:19.3
-3.84E-05,-3.07E-05,-6.21E-05,1.11E-05,-1.36E-05,21:19.3
3.83E-05,-2.55E-05,-7.87E-05,-1.01E-05,-2.71E-05,21:19.3
7.23E-05,-2.14E-05,-8.95E-05,-1.92E-05,-3.43E-05,21:19.3
4.81E-05,-2.04E-05,-7.82E-05,-9.98E-06,-2.51E-05,21:19.3
-2.25E-05,-1.82E-05,-5.57E-05,9.58E-06,-1.89E-06,21:19.3
-8.32E-05,-1.93E-05,-3.90E-05,3.38E-05,1.83E-05,21:19.3
-0.00013405,-2.18E-05,-1.91E-05,5.71E-05,3.95E-05,21:19.3
-0.00018315,-1.78E-05,-7.57E-06,6.73E-05,5.05E-05,21:19.3
-0.00016157,-1.62E-05,-1.69E-05,5.63E-05,3.47E-05,21:19.3
-8.52E-05,-1.87E-05,-3.76E-05,3.38E-05,1.18E-05,21:19.3
-1.30E-05,-1.80E-05,-6.79E-05,8.77E-06,-1.13E-05,21:19.3
6.10E-05,-1.93E-05,-9.29E-05,-1.83E-05,-3.71E-05,21:19.3
8.94E-05,-2.34E-05,-9.65E-05,-2.66E-05,-4.80E-05,21:19.3
4.57E-05,-2.32E-05,-8.92E-05,-1.25E-05,-3.78E-05,21:19.3
-4.44E-06,-1.61E-05,-7.25E-05,2.70E-06,-1.23E-05,21:19.3
-6.23E-05,-9.17E-06,-4.36E-05,2.56E-05,1.44E-05,21:19.3
-0.00013595,-8.08E-06,-2.00E-05,4.92E-05,3.26E-05,21:19.3
-0.00016588,-1.02E-05,-1.34E-05,5.50E-05,4.33E-05,21:19.3
-0.00013786,-1.27E-05,-2.13E-05,4.70E-05,3.52E-05,21:19.3
-6.50E-05,-1.59E-05,-4.13E-05,2.17E-05,9.56E-06,21:19.3
2.62E-05,-2.24E-05,-6.88E-05,-7.75E-06,-1.73E-05,21:19.3
8.75E-05,-2.47E-05,-9.12E-05,-2.49E-05,-4.14E-05,21:19.3
0.00010668,-2.26E-05,-9.68E-05,-3.50E-05,-5.38E-05,21:19.3
7.89E-05,-2.69E-05,-8.48E-05,-2.33E-05,-3.91E-05,21:19.3
1.24E-05,-2.66E-05,-6.22E-05,4.05E-06,-1.15E-05,21:19.3
-5.51E-05,-2.06E-05,-3.94E-05,2.21E-05,4.62E-06,21:19.4
-0.00011504,-1.87E-05,-1.82E-05,4.05E-05,2.32E-05,21:19.4
-0.00015183,-1.39E-05,-3.38E-06,5.44E-05,4.08E-05,21:19.4
-0.00011645,-1.10E-05,-1.41E-05,3.91E-05,2.69E-05,21:19.4
-3.30E-05,-1.58E-05,-3.95E-05,7.88E-06,-2.31E-06,21:19.4
3.82E-05,-2.04E-05,-6.59E-05,-1.29E-05,-2.83E-05,21:19.4
9.50E-05,-2.11E-05,-9.26E-05,-3.00E-05,-5.14E-05,21:19.4
0.00012289,-1.61E-05,-9.32E-05,-4.40E-05,-5.60E-05,21:19.4
0.00010078,-9.93E-06,-7.54E-05,-3.02E-05,-4.37E-05,21:19.4
4.22E-05,-7.26E-06,-5.93E-05,-3.56E-07,-2.27E-05,21:19.4
-2.85E-05,-2.79E-06,-3.15E-05,1.99E-05,8.35E-06,21:19.4
-9.01E-05,-5.89E-06,-8.44E-06,3.84E-05,3.36E-05,21:19.4
-0.00012316,-1.39E-05,-7.34E-06,4.73E-05,3.54E-05,21:19.4
-8.77E-05,-7.48E-06,-1.88E-05,3.11E-05,1.75E-05,21:19.4
-1.05E-05,-4.84E-06,-3.98E-05,5.51E-06,-5.18E-06,21:19.4
5.19E-05,-1.68E-05,-6.16E-05,-1.90E-05,-2.62E-05,21:19.4
0.00012435,-1.76E-05,-7.90E-05,-4.27E-05,-4.67E-05,21:19.4
0.00016385,-9.85E-06,-9.03E-05,-5.09E-05,-5.56E-05,21:19.4
0.00011604,-1.27E-05,-7.88E-05,-3.68E-05,-4.53E-05,21:19.4
4.93E-05,-1.72E-05,-4.97E-05,-1.30E-05,-2.25E-05,21:19.4
-1.25E-05,-1.33E-05,-2.89E-05,1.38E-05,3.99E-06,21:19.4
-7.99E-05,-1.07E-05,-1.24E-05,3.41E-05,2.39E-05,21:19.4
-0.0001047,-1.13E-05,-1.51E-06,3.68E-05,2.71E-05,21:19.4
-6.97E-05,-9.38E-06,-1.88E-05,2.47E-05,1.06E-05,21:19.4
2.16E-06,-9.44E-06,-4.81E-05,-1.73E-08,-1.49E-05,21:19.4
8.17E-05,-1.22E-05,-6.99E-05,-2.78E-05,-3.89E-05,21:19.4
0.00013685,-1.19E-05,-8.53E-05,-4.61E-05,-6.02E-05,21:19.4
0.00015301,-1.11E-05,-8.88E-05,-5.25E-05,-6.83E-05,21:19.4
0.00012987,-1.35E-05,-8.27E-05,-3.91E-05,-5.32E-05,21:19.4
7.14E-05,-1.43E-05,-6.23E-05,-1.26E-05,-2.66E-05,21:19.4
-5.99E-06,-1.25E-05,-3.73E-05,5.91E-06,-4.08E-06,21:19.4
-6.48E-05,-1.35E-05,-2.16E-05,2.03E-05,1.29E-05,21:19.4
-8.36E-05,-1.58E-05,-1.08E-05,3.16E-05,2.36E-05,21:19.4
-5.84E-05,-1.49E-05,-2.59E-05,1.75E-05,1.20E-05,21:19.4
1.58E-05,-1.44E-05,-5.54E-05,-1.51E-05,-1.79E-05,21:19.4
9.97E-05,-1.43E-05,-7.51E-05,-3.71E-05,-4.10E-05,21:19.4
0.00015522,-1.48E-05,-9.81E-05,-5.27E-05,-6.31E-05,21:19.4
0.00017514,-1.93E-05,-0.00010463,-6.49E-05,-7.67E-05,21:19.4
0.00014073,-2.12E-05,-8.61E-05,-4.95E-05,-5.59E-05,21:19.4
6.85E-05,-1.70E-05,-6.34E-05,-1.79E-05,-2.68E-05,21:19.4
-4.23E-07,-1.43E-05,-3.91E-05,2.10E-06,-5.38E-06,21:19.4
-5.45E-05,-1.54E-05,-1.89E-05,1.81E-05,1.47E-05,21:19.4
-7.83E-05,-1.82E-05,-1.41E-05,2.42E-05,1.49E-05,21:19.4
-4.00E-05,-2.20E-05,-2.99E-05,6.89E-06,-5.61E-07,21:19.4
4.33E-05,-2.35E-05,-5.22E-05,-1.58E-05,-2.60E-05,21:19.4
0.00011383,-2.15E-05,-7.41E-05,-3.89E-05,-5.70E-05,21:19.4
0.00016867,-2.21E-05,-9.84E-05,-6.45E-05,-7.00E-05,21:19.4
0.00019039,-2.37E-05,-0.00010663,-7.18E-05,-7.13E-05,21:19.4
0.00014322,-2.39E-05,-9.47E-05,-5.41E-05,-6.07E-05,21:19.4
8.19E-05,-2.66E-05,-7.29E-05,-2.78E-05,-3.64E-05,21:19.4
2.40E-05,-2.76E-05,-4.73E-05,-7.11E-06,-1.54E-05,21:19.5
-4.17E-05,-2.52E-05,-2.57E-05,6.86E-06,4.86E-06,21:19.5
-5.83E-05,-2.65E-05,-1.83E-05,1.51E-05,1.34E-05,21:19.5
-2.08E-05,-2.82E-05,-3.19E-05,8.53E-06,8.35E-07,21:19.5
4.92E-05,-2.62E-05,-5.58E-05,-1.93E-05,-2.46E-05,21:19.5
0.00013334,-3.06E-05,-8.36E-05,-5.16E-05,-5.66E-05,21:19.5
0.00018498,-3.51E-05,-0.00010267,-6.75E-05,-7.32E-05,21:19.5
0.00019417,-3.22E-05,-0.00010484,-7.24E-05,-7.45E-05,21:19.5
0.00016364,-3.42E-05,-9.98E-05,-6.08E-05,-6.34E-05,21:19.5
0.00010029,-3.00E-05,-7.79E-05,-3.23E-05,-3.83E-05,21:19.5
2.78E-05,-2.04E-05,-4.99E-05,-1.39E-05,-2.13E-05,21:19.5
-3.61E-05,-2.47E-05,-3.05E-05,2.18E-06,-5.29E-06,21:19.5
-5.54E-05,-2.46E-05,-2.13E-05,1.29E-05,8.16E-06,21:19.5
-2.58E-06,-2.06E-05,-3.93E-05,-6.45E-06,-4.71E-06,21:19.5
8.62E-05,-2.92E-05,-6.58E-05,-3.60E-05,-3.28E-05,21:19.5
0.00015435,-3.42E-05,-8.76E-05,-5.84E-05,-6.14E-05,21:19.5
0.00020081,-3.24E-05,-0.00010865,-7.62E-05,-8.02E-05,21:19.5
0.00022265,-3.12E-05,-0.00011224,-8.16E-05,-8.27E-05,21:19.5
0.00018581,-2.75E-05,-9.78E-05,-6.87E-05,-6.70E-05,21:19.5
0.00011131,-2.33E-05,-7.21E-05,-4.79E-05,-4.15E-05,21:19.5
4.26E-05,-2.25E-05,-4.92E-05,-2.68E-05,-2.05E-05,21:19.5
-9.18E-06,-2.16E-05,-3.42E-05,-1.12E-06,2.22E-06,21:19.5
-2.84E-05,-2.02E-05,-2.50E-05,6.22E-06,7.85E-06,21:19.5
1.46E-05,-2.33E-05,-3.98E-05,-1.51E-05,-1.22E-05,21:19.5
9.88E-05,-2.44E-05,-6.64E-05,-3.68E-05,-3.79E-05,21:19.5
0.00017002,-2.40E-05,-8.84E-05,-5.85E-05,-6.81E-05,21:19.5
0.00022799,-2.74E-05,-0.00010843,-8.36E-05,-8.40E-05,21:19.5
0.00024637,-2.67E-05,-0.00011241,-8.81E-05,-8.38E-05,21:19.5
0.00019626,-2.62E-05,-9.90E-05,-7.00E-05,-7.67E-05,21:19.5
0.00013867,-2.62E-05,-7.74E-05,-4.91E-05,-5.16E-05,21:19.5
8.35E-05,-2.02E-05,-5.13E-05,-3.03E-05,-2.56E-05,21:19.5
1.36E-05,-1.86E-05,-3.32E-05,-1.29E-05,-9.06E-06,21:19.5
-7.37E-06,-2.05E-05,-3.05E-05,-9.13E-06,-5.16E-06,21:19.5
4.38E-05,-1.98E-05,-4.40E-05,-2.42E-05,-2.08E-05,21:19.5
0.00012505,-2.41E-05,-7.16E-05,-5.03E-05,-4.85E-05,21:19.5
0.0002074,-2.63E-05,-9.83E-05,-7.73E-05,-7.96E-05,21:19.5
0.00026187,-2.21E-05,-0.0001112,-9.44E-05,-9.31E-05,21:19.5
0.00026641,-2.35E-05,-0.00011062,-9.81E-05,-9.08E-05,21:19.5
0.00023119,-2.22E-05,-9.40E-05,-8.48E-05,-8.19E-05,21:19.5
0.0001627,-1.78E-05,-7.12E-05,-6.15E-05,-5.57E-05,21:19.5
8.70E-05,-2.00E-05,-5.55E-05,-4.17E-05,-3.01E-05,21:19.5
4.81E-05,-1.75E-05,-3.69E-05,-2.09E-05,-2.05E-05,21:19.5
-7.78E-05,-1.69E-05,4.43E-06,6.22E-05,-2.33E-06,21:19.5
2.74E-05,1.80E-06,1.25E-05,3.64E-05,-3.46E-05,21:19.5
6.61E-05,-7.24E-06,-2.99E-05,1.54E-05,-4.72E-05,21:19.5
0.00016577,-2.37E-06,-4.87E-05,-1.26E-05,-7.86E-05,21:19.5
0.00019114,-5.24E-06,-6.57E-05,-2.54E-05,-9.13E-05,21:19.5
0.00020767,-9.01E-06,-6.41E-05,-3.18E-05,-9.17E-05,21:19.5
0.00017126,-8.37E-06,-4.48E-05,-1.56E-05,-7.33E-05,21:19.5
8.18E-05,-6.30E-06,-2.18E-05,1.65E-05,-4.78E-05,21:19.5
1.97E-05,-4.41E-06,1.73E-06,3.44E-05,-3.05E-05,21:19.5
-3.30E-05,-3.73E-06,1.42E-05,5.03E-05,-8.43E-06,21:19.5
-4.84E-05,-3.09E-06,1.91E-05,5.68E-05,-3.90E-06,21:19.5
-5.84E-06,-8.14E-06,3.02E-06,3.31E-05,-2.34E-05,21:19.5
7.94E-05,-1.15E-05,-2.58E-05,1.35E-05,-5.09E-05,21:19.5
0.00015453,-1.31E-05,-4.62E-05,2.50E-06,-7.61E-05,21:19.6
0.00019299,-1.49E-05,-6.53E-05,-2.33E-05,-8.73E-05,21:19.6
0.00020087,-1.28E-05,-6.74E-05,-2.98E-05,-8.63E-05,21:19.6
0.00015251,-1.19E-05,-4.95E-05,-1.33E-05,-7.25E-05,21:19.6
8.43E-05,-1.09E-05,-2.53E-05,5.22E-06,-4.60E-05,21:19.6
2.20E-05,-8.64E-06,4.21E-06,3.52E-05,-2.17E-05,21:19.6
-3.55E-05,-6.50E-06,1.29E-05,5.24E-05,-1.01E-05,21:19.6
-4.31E-05,-5.87E-06,8.39E-06,4.58E-05,-8.33E-06,21:19.6
3.32E-06,-6.27E-06,4.01E-06,3.61E-05,-1.87E-05,21:19.6
7.68E-05,-7.67E-06,-2.64E-05,1.06E-05,-4.72E-05,21:19.6
0.00015195,-1.46E-05,-5.84E-05,-2.03E-05,-7.67E-05,21:19.6
0.00020137,-1.83E-05,-6.57E-05,-2.90E-05,-8.64E-05,21:19.6
0.0002054,-1.82E-05,-6.21E-05,-2.90E-05,-8.21E-05,21:19.6
0.00015561,-1.83E-05,-4.96E-05,-1.86E-05,-6.78E-05,21:19.6
7.78E-05,-1.28E-05,-2.90E-05,1.04E-05,-4.01E-05,21:19.6
5.68E-06,-1.14E-05,-5.05E-06,3.56E-05,-1.56E-05,21:19.6
-3.78E-05,-1.06E-05,1.24E-05,5.05E-05,-4.49E-06,21:19.6
-4.51E-05,-8.27E-06,1.22E-05,5.19E-05,-1.83E-06,21:19.6
-1.95E-06,-1.46E-05,-5.79E-06,3.10E-05,-1.61E-05,21:19.6
8.43E-05,-1.60E-05,-3.25E-05,3.14E-06,-4.30E-05,21:19.6
0.00015088,-1.72E-05,-5.48E-05,-1.70E-05,-6.66E-05,21:19.6
0.00018543,-2.28E-05,-6.84E-05,-3.21E-05,-8.43E-05,21:19.6
0.00019225,-2.01E-05,-7.21E-05,-3.60E-05,-8.44E-05,21:19.6
0.00014515,-2.13E-05,-5.70E-05,-1.96E-05,-6.31E-05,21:19.6
6.87E-05,-2.02E-05,-2.63E-05,6.82E-06,-3.99E-05,21:19.6
-1.05E-07,-1.38E-05,-4.48E-06,3.08E-05,-2.00E-05,21:19.6
-5.20E-05,-1.78E-05,6.64E-06,4.60E-05,1.31E-06,21:19.6
-7.12E-05,-2.21E-05,8.79E-06,4.71E-05,5.18E-06,21:19.6
-2.30E-05,-2.12E-05,-1.18E-05,3.24E-05,-1.69E-05,21:19.6
6.55E-05,-1.75E-05,-3.61E-05,5.12E-06,-4.13E-05,21:19.6
0.00013259,-1.78E-05,-5.73E-05,-2.24E-05,-6.49E-05,21:19.6
0.00018571,-2.32E-05,-8.04E-05,-3.84E-05,-8.54E-05,21:19.6
0.00019074,-2.26E-05,-7.64E-05,-3.62E-05,-8.08E-05,21:19.6
0.00012022,-2.37E-05,-5.23E-05,-1.67E-05,-6.24E-05,21:19.6
4.79E-05,-2.60E-05,-3.09E-05,9.79E-06,-4.00E-05,21:19.6
-9.88E-06,-2.18E-05,-5.90E-06,3.51E-05,-9.25E-06,21:19.6
-6.64E-05,-1.94E-05,8.68E-06,4.93E-05,6.02E-06,21:19.6
